"Freq [GHz]","dB(St11) []"
0.45,-0.191269155508225
0.45225,-0.195476954215694
0.4545,-0.199783819691479
0.45675,-0.204192426545552
0.459,-0.208705531119382
0.46125,-0.213325974265171
0.4635,-0.218056684228623
0.46575,-0.222900679639348
0.468,-0.227861072613189
0.47025,-0.232941071970961
0.4725,-0.238143986578216
0.47475,-0.243473228810877
0.477,-0.24893231815181
0.47925,-0.254524884923514
0.4815,-0.260254674162465
0.48375,-0.266125549640701
0.486,-0.272141498040655
0.48825,-0.278306633289296
0.4905,-0.28462520105806
0.49275,-0.291101583435177
0.495,-0.297740303777338
0.49725,-0.304546031747934
0.4995,-0.31152358854934
0.50175,-0.318677952357039
0.504,-0.326014263963737
0.50625,-0.333537832641848
0.5085,-0.341254142233178
0.51075,-0.349168857474844
0.513,-0.357287830570975
0.51525,-0.365617108019999
0.5175,-0.374162937707719
0.51975,-0.382931776276824
0.522,-0.391930296783859
0.52425,-0.401165396655068
0.5265,-0.410644205952989
0.52875,-0.420374095966163
0.531,-0.430362688134642
0.53325,-0.440617863324651
0.5355,-0.451147771466024
0.53775,-0.461960841566726
0.54,-0.473065792119108
0.54225,-0.484471641913246
0.5445,-0.496187721272983
0.54675,-0.50822368373119
0.549,-0.520589518160921
0.55125,-0.533295561380054
0.5535,-0.546352511247286
0.55575,-0.559771440268154
0.558,-0.573563809730188
0.56025,-0.587741484386973
0.5625,-0.602316747711457
0.56475,-0.617302317739456
0.567,-0.632711363524894
0.56925,-0.648557522228929
0.5715,-0.664854916865724
0.57375,-0.681618174728166
0.576,-0.698862446517489
0.57825,-0.716603426201319
0.5805,-0.734857371625196
0.58275,-0.753641125903199
0.585,-0.772972139613932
0.58725,-0.792868493828456
0.5895,-0.813348923997492
0.59175,-0.834432844725504
0.594,-0.856140375459845
0.59625,-0.878492367123507
0.5985,-0.901510429720509
0.60075,-0.925216960943121
0.603,-0.949635175810737
0.60525,-0.974789137370193
0.6075,-1.00070378848785
0.60975,-1.02740498476375
0.612,-1.05491952859859
0.61425,-1.08327520444403
0.6165,-1.11250081526747
0.61875,-1.14262622026204
0.621,-1.17368237383284
0.62325,-1.20570136589074
0.6255,-1.23871646348447
0.62775,-1.2727621538027
0.63,-1.30787418857704
0.63225,-1.34408962991772
0.6345,-1.38144689761362
0.63675,-1.41998581792867
0.639,-1.45974767392755
0.64125,-1.50077525736361
0.6435,-1.54311292216369
0.64575,-1.58680663954522
0.648,-1.63190405480274
0.65025,-1.67845454580324
0.6525,-1.72650928323211
0.65475,-1.77612129263478
0.657,-1.82734551830323
0.65925,-1.88023888906125
0.6615,-1.93486038600816
0.66375,-1.99127111228792
0.666,-2.04953436495844
0.66825,-2.1097157090461
0.6705,-2.17188305388157
0.67275,-2.23610673182647
0.675,-2.30245957951578
0.67725,-2.37101702175848
0.6795,-2.44185715825901
0.68175,-2.51506085334499
0.684,-2.59071182891256
0.68625,-2.66889676082907
0.6885,-2.74970537906567
0.69075,-2.83323057186689
0.693,-2.91956849430408
0.69525,-3.0088186816011
0.6975,-3.1010841676664
0.69975,-3.19647160931385
0.702,-3.29509141670551
0.70425,-3.3970578906013
0.7065,-3.50248936705383
0.70875,-3.61150837023767
0.711,-3.72424177415071
0.71325,-3.84082097396732
0.7155,-3.96138206785484
0.71775,-4.08606605008204
0.72,-4.21501901624362
0.72225,-4.34839238138969
0.7245,-4.48634311177394
0.72675,-4.62903397080232
0.729,-4.77663377955936
0.73125,-4.929317691986
0.7335,-5.08726748435172
0.73575,-5.25067185806339
0.738,-5.41972675403342
0.74025,-5.59463567572223
0.7425,-5.77561001648812
0.74475,-5.96286938490818
0.747,-6.15664191912833
0.74925,-6.35716457786648
0.7515,-6.56468339117686
0.75375,-6.77945364815519
0.756,-7.00173999098788
0.75825,-7.23181637455419
0.7605,-7.46996583742551
0.76275,-7.71648001258539
0.765,-7.97165828321796
0.76725,-8.23580645878092
0.7695,-8.50923480706467
0.77175,-8.79225522614584
0.774,-9.0851772723304
0.77625,-9.38830267157959
0.7785,-9.70191782653743
0.78075,-10.0262836818491
0.783,-10.3616221184757
0.78525,-10.7080978040367
0.7875,-11.0657941225101
0.78975,-11.4346814385336
0.792,-11.8145755248962
0.79425,-12.2050835240566
0.7965,-12.6055343947069
0.79875,-13.0148905560141
0.801,-13.4316376532996
0.80325,-13.8536504908834
0.8055,-14.2780359404215
0.80775,-14.7009590728366
0.81,-15.1174681143417
0.81225,-15.5213480625698
0.8145,-15.905051503248
0.81675,-16.2597745725172
0.819,-16.5757566589175
0.82125,-16.8428686019557
0.8235,-17.0514990225065
0.82575,-17.1936483394649
0.828,-17.2640225055598
0.83025,-17.2608452641306
0.8325,-17.1861426636219
0.83475,-17.0454069798104
0.837,-16.8467494439621
0.83925,-16.5997961019588
0.8415,-16.3146052570311
0.84375,-16.0008050702227
0.846,-15.6670318272869
0.84825,-15.3206526227292
0.8505,-14.9677050962372
0.85275,-14.6129758371358
0.855,-14.260151014222
0.85725,-13.9119924097575
0.8595,-13.5705104408925
0.86175,-13.2371195535799
0.864,-12.9127703433012
0.86625,-12.5980579194061
0.8685,-12.2933086152231
0.87075,-11.9986481655485
0.873,-11.714054630906
0.87525,-11.4393990857523
0.8775,-11.1744766605443
0.87975,-10.9190300706528
0.882,-10.6727673429178
0.88425,-10.4353750881548
0.8865,-10.2065283697216
0.88875,-9.98589797946443
0.891,-9.7731557444696
0.89325,-9.56797834193585
0.8955,-9.37004998674528
0.89775,-9.17906426976933
0.9,-8.99472535873474
0.90225,-8.81674872291181
0.9045,-8.64486150431693
0.90675,-8.47880262870755
0.909,-8.31832272721779
0.91125,-8.16318392237048
0.9135,-8.01315951914295
0.91575,-7.86803363179213
0.918,-7.72760076952897
0.92025,-7.59166539831419
0.9225,-7.46004149160416
0.92475,-7.33255207948275
0.927,-7.20902880302869
0.92925,-7.08931147879746
0.9315,-6.97324767680145
0.93375,-6.86069231423894
0.936,-6.75150726636977
0.93825,-6.64556099529631
0.9405,-6.54272819693474
0.94275,-6.44288946611312
0.945,-6.34593097948191
0.94725,-6.25174419574471
0.9495,-6.1602255725963
0.95175,-6.07127629967593
0.954,-5.98480204679782
0.95625,-5.90071272669798
0.9585,-5.81892227153251
0.96075,-5.73934842237014
0.963,-5.66191253094029
0.96525,-5.58653937292157
0.9675,-5.51315697208441
0.96975,-5.44169643463279
0.972,-5.37209179312278
0.97425,-5.30427985936861
0.9765,-5.23820008578044
0.97875,-5.17379443461048
0.981,-5.11100725461553
0.98325,-5.04978516467445
0.9855,-4.99007694392827
0.98775,-4.93183342803796
0.99,-4.87500741118125
0.99225,-4.81955355343425
0.9945,-4.76542829320699
0.99675,-4.7125897644237
0.999,-4.66099771815872
1.00125,-4.61061344845837
1.0035,-4.56139972209655
1.00575,-4.51332071202848
1.008,-4.46634193432263
1.01025,-4.42043018836492
1.0125,-4.37555350014314
1.01475,-4.33168106843154
1.017,-4.28878321370766
1.01925,-4.2468313296438
1.0215,-4.20579783702609
1.02375,-4.16565613996298
1.026,-4.12638058425434
1.02825,-4.08794641779973
1.0305,-4.05032975293273
1.03275,-4.01350753057466
1.035,-3.97745748610808
1.03725,-3.94215811687617
1.0395,-3.9075886512202
1.04175,-3.87372901897224
1.044,-3.84055982332567
1.04625,-3.80806231401022
1.0485,-3.77621836170313
1.05075,-3.74501043361148
1.053,-3.71442157016516
1.05525,-3.68443536276298
1.0575,-3.65503593251804
1.05975,-3.62620790995135
1.062,-3.59793641558598
1.06425,-3.57020704139621
1.0665,-3.54300583306912
1.06875,-3.51631927303829
1.071,-3.49013426425154
1.07325,-3.46443811463675
1.0755,-3.43921852223169
1.07775,-3.41446356094587
1.08,-3.39016166692383
1.08225,-3.36630162548133
1.0845,-3.34287255858694
1.08675,-3.31986391286358
1.089,-3.29726544808532
1.09125,-3.27506722614646
1.0935,-3.25325960048096
1.09575,-3.23183320591141
1.098,-3.21077894890778
1.10025,-3.19008799823741
1.1025,-3.16975177598832
1.10475,-3.14976194894907
1.107,-3.13011042032922
1.10925,-3.11078932180507
1.1115,-3.09179100587643
1.11375,-3.07310803852046
1.116,-3.05473319212975
1.11825,-3.0366594387221
1.1205,-3.0188799434103
1.12275,-3.00138805812053
1.125,-2.98417731554883
1.12725,-2.96724142334546
1.1295,-2.95057425851733
1.13175,-2.93416986203939
1.134,-2.91802243366618
1.13625,-2.90212632693503
1.1385,-2.88647604435313
1.14075,-2.87106623276064
1.143,-2.85589167886267
1.14525,-2.84094730492326
1.1475,-2.82622816461455
1.14975,-2.81172943901507
1.152,-2.79744643275089
1.15425,-2.78337457027406
1.1565,-2.76950939227269
1.15875,-2.7558465522075
1.161,-2.74238181296985
1.16325,-2.72911104365633
1.1655,-2.71603021645543
1.16775,-2.70313540364189
1.17,-2.69042277467444
1.17225,-2.67788859339305
1.1745,-2.66552921531178
1.17675,-2.65334108500353
1.179,-2.64132073357322
1.18125,-2.629464776216
1.1835,-2.61776990985732
1.18575,-2.60623291087163
1.188,-2.59485063287697
1.19025,-2.58362000460238
1.1925,-2.5725380278256
1.19475,-2.56160177537831
1.197,-2.55080838921652
1.19925,-2.54015507855366
1.2015,-2.52963911805406
1.20375,-2.51925784608466
1.206,-2.50900866302282
1.20825,-2.49888902961813
1.2105,-2.48889646540641
1.21275,-2.47902854717393
1.215,-2.46928290747
1.21725,-2.45965723316644
1.2195,-2.45014926406192
1.22175,-2.44075679152993
1.224,-2.4314776572086
1.22625,-2.42230975173103
1.2285,-2.4132510134947
1.23075,-2.40429942746848
1.233,-2.39545302403618
1.23525,-2.38670987787512
1.2375,-2.37806810686867
1.23975,-2.36952587105158
1.242,-2.36108137158694
1.24425,-2.35273284977368
1.2465,-2.34447858608368
1.24875,-2.33631689922733
1.251,-2.32824614524674
1.25325,-2.3202647166356
1.2555,-2.31237104148473
1.25775,-2.30456358265263
1.26,-2.29684083696006
1.26225,-2.28920133440789
1.2645,-2.28164363741753
1.26675,-2.27416634009303
1.269,-2.26676806750436
1.27125,-2.25944747499098
1.2735,-2.25220324748513
1.27575,-2.24503409885426
1.278,-2.23793877126186
1.28025,-2.23091603454608
1.2825,-2.22396468561583
1.28475,-2.2170835478634
1.287,-2.2102714705934
1.28925,-2.20352732846736
1.2915,-2.19685002096348
1.29375,-2.19023847185112
1.296,-2.18369162867947
1.29825,-2.17720846228008
1.3005,-2.17078796628267
1.30275,-2.16442915664392
1.305,-2.15813107118874
1.30725,-2.15189276916377
1.3095,-2.14571333080249
1.31175,-2.13959185690186
1.314,-2.13352746840993
1.31625,-2.12751930602415
1.3185,-2.12156652980006
1.32075,-2.11566831876998
1.323,-2.10982387057156
1.32525,-2.10403240108557
1.3275,-2.098293144083
1.32975,-2.09260535088098
1.332,-2.08696829000725
1.33425,-2.08138124687302
1.3365,-2.07584352345384
1.33875,-2.0703544379784
1.341,-2.0649133246248
1.34325,-2.05951953322428
1.3455,-2.05417242897206
1.34775,-2.04887139214505
1.35,-2.04361581782632
