"Freq [GHz]","dB(St11) []"
0.45,-0.107940884574467
0.45225,-0.110096144600258
0.4545,-0.112295955690917
0.45675,-0.114541350259393
0.459,-0.116833387728419
0.46125,-0.119173155316594
0.4635,-0.12156176884966
0.46575,-0.124000373597767
0.468,-0.126490145139687
0.47025,-0.12903229025489
0.4725,-0.131628047844441
0.47475,-0.134278689881724
0.477,-0.136985522394054
0.47925,-0.139749886476231
0.4815,-0.142573159337169
0.48375,-0.145456755380756
0.486,-0.148402127322151
0.48825,-0.151410767340752
0.4905,-0.154484208271154
0.49275,-0.157624024833411
0.495,-0.160831834904009
0.49725,-0.164109300828985
0.4995,-0.167458130780685
0.50175,-0.170880080159727
0.504,-0.174376953043751
0.50625,-0.177950603684642
0.5085,-0.181602938055958
0.51075,-0.18533591545233
0.513,-0.189151550142724
0.51525,-0.193051913079473
0.5175,-0.197039133665083
0.51975,-0.201115401578871
0.522,-0.205282968665627
0.52425,-0.209544150888472
0.5265,-0.213901330348238
0.52875,-0.218356957371803
0.531,-0.222913552671808
0.53325,-0.227573709580344
0.5355,-0.232340096359318
0.53775,-0.237215458590176
0.54,-0.242202621645943
0.54225,-0.247304493248466
0.5445,-0.252524066113985
0.54675,-0.257864420690212
0.549,-0.263328727988178
0.55125,-0.268920252512331
0.5535,-0.274642355292369
0.55575,-0.280498497020511
0.558,-0.286492241297977
0.56025,-0.292627257994626
0.5625,-0.29890732672582
0.56475,-0.305336340450702
0.567,-0.311918309196276
0.56925,-0.318657363911773
0.5715,-0.32555776045798
0.57375,-0.33262388373633
0.576,-0.339860251962781
0.57825,-0.347271521091568
0.5805,-0.354862489394246
0.58275,-0.362638102199396
0.585,-0.370603456798823
0.58725,-0.378763807525962
0.5895,-0.387124571012662
0.59175,-0.395691331630519
0.594,-0.404469847123218
0.59625,-0.413466054436545
0.5985,-0.422686075752868
0.60075,-0.43213622473716
0.603,-0.44182301300183
0.60525,-0.451753156797787
0.6075,-0.461933583939483
0.60975,-0.472371440971726
0.612,-0.48307410058653
0.61425,-0.494049169298149
0.6165,-0.505304495385011
0.61875,-0.516848177107184
0.621,-0.528688571208465
0.62325,-0.540834301712202
0.6255,-0.553294269020328
0.62775,-0.566077659325169
0.63,-0.579193954343925
0.63225,-0.592652941385771
0.6345,-0.60646472376187
0.63675,-0.620639731548684
0.639,-0.635188732715146
0.64125,-0.650122844624506
0.6435,-0.665453545921731
0.64575,-0.681192688817531
0.648,-0.697352511780209
0.65025,-0.713945652646651
0.6525,-0.730985162163851
0.65475,-0.748484517972474
0.657,-0.766457639043974
0.65925,-0.784918900582914
0.6615,-0.803883149405967
0.66375,-0.823365719809306
0.666,-0.843382449935766
0.66825,-0.863949698653382
0.6705,-0.88508436295649
0.67275,-0.90680389590073
0.675,-0.929126325082856
0.67725,-0.952070271676235
0.6795,-0.975654970032513
0.68175,-0.999900287859758
0.684,-1.02482674698693
0.68625,-1.05045554472423
0.6885,-1.07680857582843
0.69075,-1.1039084550818
0.693,-1.1317785404928
0.69525,-1.16044295712606
0.6975,-1.18992662156867
0.69975,-1.22025526703921
0.702,-1.25145546914514
0.70425,-1.28355467229369
0.7065,-1.3165812167606
0.70875,-1.35056436642033
0.711,-1.38553433714071
0.71325,-1.42152232584432
0.7155,-1.45856054023811
0.71775,-1.49668222921232
0.72,-1.53592171390889
0.72225,-1.57631441945944
0.7245,-1.61789690739205
0.72675,-1.66070690870611
0.729,-1.70478335761417
0.73125,-1.75016642594983
0.7335,-1.79689755824081
0.73575,-1.84501950744703
0.738,-1.89457637136395
0.74025,-1.94561362969261
0.7425,-1.99817818177939
0.74475,-2.05231838502969
0.747,-2.10808409400261
0.74925,-2.16552670019575
0.7515,-2.22469917253266
0.75375,-2.28565609856905
0.756,-2.34845372643788
0.75825,-2.41315000755827
0.7605,-2.47980464013823
0.76275,-2.54847911350709
0.765,-2.61923675331945
0.76725,-2.69214276767911
0.7695,-2.76726429423821
0.77175,-2.8446704483337
0.774,-2.92443237222973
0.77625,-3.00662328554134
0.7785,-3.09131853691958
0.78075,-3.17859565708309
0.783,-3.26853441328263
0.78525,-3.36121686528495
0.7875,-3.45672742295778
0.78975,-3.55515290552853
0.792,-3.6565826025733
0.79425,-3.76110833676857
0.7965,-3.8688245284028
0.79875,-3.97982826159643
0.801,-4.09421935211298
0.80325,-4.21210041655599
0.8055,-4.3335769426328
0.80775,-4.45875736001765
0.81,-4.58775311115753
0.81225,-4.72067872112343
0.8145,-4.85765186530486
0.81675,-4.99879343336263
0.819,-5.14422758737478
0.82125,-5.29408181150994
0.8235,-5.44848694981456
0.82575,-5.60757722776869
0.828,-5.77149025210794
0.83025,-5.94036698197199
0.8325,-6.11435166265754
0.83475,-6.29359171104305
0.837,-6.47823753901306
0.83925,-6.66844229781453
0.8415,-6.86436152207124
0.84375,-7.06615264697213
0.846,-7.27397436569786
0.84825,-7.48798578616573
0.8505,-7.70834533630087
0.85275,-7.93520935484951
0.855,-8.16873028972201
0.85725,-8.40905440737693
0.8595,-8.656318894126
0.86175,-8.91064820265837
0.864,-9.17214946370198
0.86625,-9.44090674272451
0.8685,-9.71697387423906
0.87075,-10.0003655513123
0.873,-10.2910462857461
0.87525,-10.5889167870009
0.8775,-10.8937972395452
0.87975,-11.2054068971802
0.882,-11.5233393733416
0.88425,-11.8470330119744
0.8865,-12.175735810994
0.88875,-12.5084645940376
0.891,-12.8439585626473
0.89325,-13.1806281102189
0.8955,-13.5165009587412
0.89775,-13.849169403839
0.9,-14.175744785897
0.90225,-14.4928281699012
0.9045,-14.7965092703221
0.90675,-15.08240813503
0.909,-15.3457747176072
0.91125,-15.5816585116977
0.9135,-15.7851522520703
0.91575,-15.9516997110885
0.918,-16.0774395341722
0.92025,-16.1595396021555
0.9225,-16.1964665502682
0.92475,-16.1881391264906
0.927,-16.1359338137563
0.92925,-16.0425415401561
0.9315,-15.9117051107124
0.93375,-15.7478877571131
0.936,-15.5559284050098
0.93825,-15.3407302262666
0.9405,-15.1070118898831
0.94275,-14.8591326904976
0.945,-14.6009883689307
0.94725,-14.3359658502193
0.9495,-14.0669418414234
0.95175,-13.7963106492649
0.954,-13.5260289702203
0.95625,-13.2576684493471
0.9585,-12.9924696983408
0.96075,-12.7313938389908
0.963,-12.4751694055805
0.96525,-12.2243336552931
0.9675,-11.9792681119506
0.96975,-11.7402286238599
0.972,-11.5073704527939
0.97425,-11.2807690063763
0.9765,-11.0604368362649
0.97875,-10.8463374873639
0.981,-10.63839672319
0.98325,-10.4365115843624
0.9855,-10.2405576695715
0.98775,-10.0503949658295
0.99,-9.86587249932982
0.99225,-9.68683203039312
0.9945,-9.5131109754915
0.99675,-9.34454470553833
0.999,-9.18096834169172
1.00125,-9.02221814698431
1.0035,-8.86813259336393
1.00575,-8.71855316849428
1.008,-8.57332497430344
1.01025,-8.43229715925608
1.0125,-8.29532321822714
1.01475,-8.16226118730891
1.017,-8.03297375559357
1.01925,-7.90732831170027
1.0215,-7.78519693936251
1.02375,-7.66645637360092
1.026,-7.55098792675097
1.02825,-7.43867739179014
1.0305,-7.3294149289338
1.03275,-7.22309494027479
1.035,-7.11961593627569
1.03725,-7.01888039714033
1.0395,-6.92079463145889
1.04175,-6.82526863400845
1.044,-6.73221594417769
1.04625,-6.64155350614954
1.0485,-6.55320153170635
1.05075,-6.46708336630443
1.053,-6.38312535889044
1.05525,-6.30125673579204
1.0575,-6.22140947890316
1.05975,-6.14351820829532
1.062,-6.06752006931603
1.06425,-5.99335462417998
1.0665,-5.92096374801559
1.06875,-5.85029152929613
1.071,-5.78128417456
1.07325,-5.71388991730554
1.0755,-5.64805893093271
1.07775,-5.58374324559443
1.08,-5.52089666881484
1.08225,-5.45947470972821
1.0845,-5.39943450679132
1.08675,-5.34073475882262
1.089,-5.28333565922325
1.09125,-5.22719883323798
1.0935,-5.17228727811748
1.09575,-5.11856530604762
1.098,-5.06599848971582
1.10025,-5.01455361038933
1.1025,-4.96419860838497
1.10475,-4.91490253581536
1.107,-4.86663551150075
1.10925,-4.81936867794134
1.1115,-4.77307416024936
1.11375,-4.72772502694495
1.116,-4.68329525252449
1.11825,-4.63975968171455
1.1205,-4.59709399532883
1.12275,-4.55527467764961
1.125,-4.51427898525902
1.12725,-4.47408491724959
1.1295,-4.43467118674662
1.13175,-4.39601719367883
1.134,-4.35810299873669
1.13625,-4.32090929846102
1.1385,-4.28441740140767
1.14075,-4.24860920533619
1.143,-4.2134671753741
1.14525,-4.17897432310983
1.1475,-4.14511418657052
1.14975,-4.11187081104286
1.152,-4.07922873069719
1.15425,-4.04717295097746
1.1565,-4.01568893172108
1.15875,-3.98476257097496
1.161,-3.95438018947557
1.16325,-3.92452851576231
1.1655,-3.89519467189539
1.16775,-3.86636615975053
1.17,-3.83803084786442
1.17225,-3.81017695880599
1.1745,-3.78279305704992
1.17675,-3.7558680373299
1.179,-3.72939111345034
1.18125,-3.70335180753614
1.1835,-3.6777399397013
1.18575,-3.65254561811791
1.188,-3.62775922946815
1.19025,-3.60337142976256
1.1925,-3.57937313550872
1.19475,-3.55575551521543
1.197,-3.53250998121779
1.19925,-3.50962818180969
1.2015,-3.48710199367055
1.20375,-3.4649235145739
1.206,-3.44308505636605
1.20825,-3.4215791382034
1.2105,-3.40039848003775
1.21275,-3.37953599633921
1.215,-3.35898479004705
1.21725,-3.33873814673903
1.2195,-3.31878952901024
1.22175,-3.29913257105307
1.224,-3.27976107343
1.22625,-3.26066899803164
1.2285,-3.24185046321223
1.23075,-3.22329973909603
1.233,-3.2050112430472
1.23525,-3.18697953529724
1.2375,-3.16919931472339
1.23975,-3.15166541477228
1.242,-3.13437279952302
1.24425,-3.11731655988446
1.2465,-3.1004919099212
1.24875,-3.08389418330363
1.251,-3.06751882987697
1.25325,-3.05136141234509
1.2555,-3.03541760306435
1.25775,-3.01968318094363
1.26,-3.0041540284463
1.26225,-2.98882612869048
1.2645,-2.97369556264376
1.26675,-2.95875850640891
1.269,-2.94401122859726
1.27125,-2.92945008778642
1.2735,-2.91507153005933
1.27575,-2.90087208662146
1.278,-2.88684837149364
1.28025,-2.87299707927742
1.2825,-2.85931498299055
1.28475,-2.84579893197001
1.287,-2.83244584984009
1.28925,-2.81925273254326
1.2915,-2.80621664643163
1.29375,-2.7933347264167
1.296,-2.78060417417556
1.29825,-2.7680222564113
1.3005,-2.75558630316599
1.30275,-2.74329370618416
1.305,-2.7311419173252
1.30725,-2.71912844702289
1.3095,-2.70725086279045
1.31175,-2.69550678776963
1.314,-2.68389389932217
1.31625,-2.6724099276623
1.3185,-2.66105265452898
1.32075,-2.64981991189626
1.323,-2.63870958072078
1.32525,-2.62771958972495
1.3275,-2.61684791421475
1.32975,-2.60609257493094
1.332,-2.59545163693255
1.33425,-2.58492320851171
1.3365,-2.57450544013861
1.33875,-2.56419652343579
1.341,-2.55399469018064
1.34325,-2.54389821133534
1.3455,-2.53390539610327
1.34775,-2.52401459101105
1.35,-2.51422417901543
