"Freq [GHz]","dB(St11) []"
0.45,-0.172753890031218
0.45225,-0.17656481159185
0.4545,-0.180465889026289
0.45675,-0.184459565392383
0.459,-0.188548359154377
0.46125,-0.19273486678673
0.4635,-0.197021765476871
0.46575,-0.201411815930858
0.468,-0.205907865286258
0.47025,-0.210512850136556
0.4725,-0.215229799671724
0.47475,-0.220061838939724
0.477,-0.225012192233952
0.47925,-0.230084186611775
0.4815,-0.235281255549649
0.48375,-0.240606942740447
0.486,-0.246064906038888
0.48825,-0.251658921561244
0.4905,-0.25739288794576
0.49275,-0.263270830780411
0.495,-0.269296907205081
0.49725,-0.275475410695352
0.4995,-0.281810776035549
0.50175,-0.288307584488917
0.504,-0.294970569173227
0.50625,-0.301804620650362
0.5085,-0.308814792738888
0.51075,-0.316006308558929
0.513,-0.323384566819111
0.51525,-0.330955148355669
0.5175,-0.338723822934392
0.51975,-0.346696556326292
0.522,-0.35487951766858
0.52425,-0.363279087122842
0.5265,-0.371901863842861
0.52875,-0.380754674265061
0.531,-0.389844580735032
0.53325,-0.399178890484158
0.5355,-0.408765164970986
0.53775,-0.41861122960247
0.54,-0.428725183850893
0.54225,-0.439115411782888
0.5445,-0.449790593017592
0.54675,-0.460759714131666
0.549,-0.472032080529566
0.55125,-0.483617328798175
0.5535,-0.495525439565628
0.55575,-0.507766750884864
0.558,-0.520351972163255
0.56025,-0.533292198660411
0.5625,-0.546598926577029
0.56475,-0.560284068758512
0.567,-0.574359971037888
0.56925,-0.588839429243376
0.5715,-0.603735706896876
0.57375,-0.619062553630404
0.576,-0.634834224348516
0.57825,-0.651065499165522
0.5805,-0.667771704147265
0.58275,-0.684968732888108
0.585,-0.70267306895468
0.58725,-0.720901809228796
0.5895,-0.739672688182962
0.59175,-0.759004103122619
0.594,-0.778915140430328
0.59625,-0.799425602847845
0.5985,-0.82055603783295
0.60075,-0.842327767028739
0.603,-0.864762916883914
0.60525,-0.887884450463354
0.6075,-0.911716200489142
0.60975,-0.936282903652806
0.612,-0.961610236240445
0.61425,-0.987724851112928
0.6165,-1.01465441608414
0.61875,-1.04242765374084
0.621,-1.07107438274821
0.62325,-1.10062556068609
0.6255,-1.13111332846085
0.62775,-1.16257105633923
0.63,-1.19503339165024
0.63225,-1.22853630820243
0.6345,-1.26311715746404
0.63675,-1.29881472155453
0.639,-1.33566926809654
0.64125,-1.37372260697838
0.6435,-1.41301814907825
0.64575,-1.45360096700244
0.648,-1.49551785789171
0.65025,-1.53881740835158
0.6525,-1.58355006156499
0.65475,-1.62976818664822
0.657,-1.67752615031499
0.65925,-1.72688039091739
0.6615,-1.77788949493782
0.66375,-1.83061427601216
0.666,-1.88511785657185
0.66825,-1.94146575220152
0.6705,-1.99972595881918
0.67275,-2.0599690427986
0.675,-2.12226823416789
0.67725,-2.18669952303569
0.6795,-2.25334175941578
0.68175,-2.32227675664421
0.684,-2.39358939860942
0.68625,-2.46736775104574
0.6885,-2.54370317717558
0.69075,-2.62269045802425
0.693,-2.7044279177754
0.69525,-2.78901755458432
0.6975,-2.87656517732104
0.69975,-2.96718054877555
0.702,-3.06097753592382
0.70425,-3.15807426792534
0.7065,-3.25859330260027
0.70875,-3.36266180221681
0.711,-3.4704117195053
0.71325,-3.58197999490465
0.7155,-3.69750876613498
0.71775,-3.81714559127666
0.72,-3.94104368661456
0.72225,-4.06936218057224
0.7245,-4.20226638510632
0.72675,-4.33992808594516
0.729,-4.48252585302604
0.73125,-4.63024537239172
0.7335,-4.78327980062737
0.73575,-4.94183014262075
0.738,-5.10610565297101
0.74025,-5.2763242606992
0.7425,-5.45271301595495
0.74475,-5.63550855607443
0.747,-5.82495758649641
0.74925,-6.02131736952296
0.7515,-6.22485621049395
0.75375,-6.43585392634001
0.756,-6.65460227529071
0.75825,-6.88140531822511
0.7605,-7.11657967105566
0.76275,-7.36045459270142
0.765,-7.61337183337163
0.76725,-7.87568514136308
0.7695,-8.14775929110963
0.77175,-8.42996844778251
0.774,-8.72269362027449
0.77625,-9.02631886953109
0.7785,-9.34122582581805
0.78075,-9.6677859173943
0.783,-10.006349512382
0.78525,-10.357230910766
0.7875,-10.7206877772124
0.78975,-11.0968931593881
0.792,-11.4858976749426
0.79425,-11.8875787686994
0.7965,-12.3015731637285
0.79875,-12.7271878406886
0.801,-13.1632842825854
0.80325,-13.6081307337555
0.8055,-14.0592186130209
0.80775,-14.5130432878162
0.81,-14.9648581028319
0.81225,-15.4084262941412
0.8145,-15.8358201860633
0.81675,-16.2373499220725
0.819,-16.6017365864676
0.82125,-16.9166561587465
0.8235,-17.1697384968313
0.82575,-17.3499809467539
0.828,-17.4493414865479
0.83025,-17.4640972326658
0.8325,-17.3955244173177
0.83475,-17.2496516560768
0.837,-17.0361784825844
0.83925,-16.7669364644023
0.8415,-16.4543475414932
0.84375,-16.1102105056127
0.846,-15.7449440474471
0.84825,-15.3672509271341
0.8505,-14.984088166385
0.85275,-14.6008184043885
0.855,-14.2214435580476
0.85725,-13.8488563691157
0.8595,-13.4850745110972
0.86175,-13.1314418473359
0.864,-12.7887931879636
0.86625,-12.4575848932425
0.8685,-12.1379961446168
0.87075,-11.8300062535762
0.873,-11.5334530033091
0.87525,-11.2480762852559
0.8775,-10.9735504933017
0.87975,-10.7095084049789
0.882,-10.4555586594495
0.88425,-10.2112984423235
0.8865,-9.97632259567698
0.88875,-9.75023007013615
0.891,-9.53262840654491
0.89325,-9.32313676158792
0.8955,-9.12138786165272
0.89775,-8.92702917175144
0.9,-8.73972349341704
0.90225,-8.55914915098419
0.9045,-8.38499988492062
0.90675,-8.2169845404042
0.909,-8.05482661654597
0.91125,-7.89826372459434
0.9135,-7.74704699067935
0.91575,-7.60094042908596
0.918,-7.45972030488225
0.92025,-7.32317449936824
0.9225,-7.19110188780803
0.92475,-7.06331173592449
0.927,-6.93962311941912
0.92925,-6.81986436914204
0.9315,-6.70387254333465
0.93375,-6.59149292749203
0.936,-6.48257856176427
0.93825,-6.3769897953723
0.9405,-6.27459386720927
0.94275,-6.17526451159715
0.945,-6.07888158804352
0.94725,-5.98533073377576
0.9495,-5.89450303780308
0.95175,-5.80629473525953
0.954,-5.72060692080581
0.95625,-5.6373452799055
0.9585,-5.5564198368402
0.96075,-5.47774471838147
0.963,-5.40123793209524
0.96525,-5.32682115831263
0.9675,-5.25441955485965
0.96975,-5.18396157369539
0.972,-5.11537878866363
0.97425,-5.04860573361602
0.9765,-4.98357975021499
0.97875,-4.92024084477263
0.981,-4.85853155352626
0.98325,-4.79839681579366
0.9855,-4.73978385448978
0.98775,-4.68264206352404
0.99,-4.62692290163051
0.99225,-4.57257979221574
0.9945,-4.51956802883769
0.99675,-4.46784468595679
0.999,-4.41736853462549
1.00125,-4.36809996280566
1.0035,-4.32000090002511
1.00575,-4.27303474610444
1.008,-4.22716630370407
1.01025,-4.18236171445826
1.0125,-4.13858839847894
1.01475,-4.09581499702701
1.017,-4.05401131816209
1.01925,-4.01314828519457
1.0215,-3.9731978877755
1.02375,-3.93413313547045
1.026,-3.8959280136739
1.02825,-3.8585574417297
1.0305,-3.82199723313214
1.03275,-3.78622405768983
1.035,-3.75121540554241
1.03725,-3.71694955292692
1.0395,-3.68340552959698
1.04175,-3.65056308780422
1.044,-3.61840267275682
1.04625,-3.58690539447517
1.0485,-3.55605300096972
1.05075,-3.5258278526705
1.053,-3.49621289804189
1.05525,-3.46719165032058
1.0575,-3.43874816531769
1.05975,-3.41086702023011
1.062,-3.38353329340901
1.06425,-3.35673254503637
1.0665,-3.33045079866354
1.06875,-3.30467452356812
1.071,-3.27939061788815
1.07325,-3.25458639249493
1.0755,-3.23024955556756
1.07775,-3.20636819783502
1.08,-3.18293077845281
1.08225,-3.15992611148338
1.0845,-3.13734335295126
1.08675,-3.11517198844498
1.089,-3.09340182124003
1.09125,-3.07202296091775
1.0935,-3.051025812457
1.09575,-3.03040106577625
1.098,-3.01013968570507
1.10025,-2.99023290236529
1.1025,-2.97067220194261
1.10475,-2.95144931783098
1.107,-2.93255622213263
1.10925,-2.91398511749765
1.1115,-2.89572842928774
1.11375,-2.87777879804965
1.116,-2.86012907228441
1.11825,-2.84277230149924
1.1205,-2.82570172952961
1.12275,-2.80891078811975
1.125,-2.79239309074996
1.12725,-2.77614242670038
1.1295,-2.76015275534069
1.13175,-2.74441820063617
1.134,-2.72893304586079
1.13625,-2.7136917285085
1.1385,-2.69868883539436
1.14075,-2.68391909793745
1.143,-2.66937738761794
1.14525,-2.65505871160103
1.1475,-2.6409582085209
1.14975,-2.62707114441784
1.152,-2.61339290882257
1.15425,-2.59991901098139
1.1565,-2.58664507621659
1.15875,-2.57356684241667
1.161,-2.56068015665093
1.16325,-2.54798097190361
1.1655,-2.53546534392275
1.16775,-2.52312942817908
1.17,-2.51096947693073
1.17225,-2.49898183638951
1.1745,-2.48716294398475
1.17675,-2.47550932572088
1.179,-2.46401759362519
1.18125,-2.45268444328207
1.1835,-2.44150665145068
1.18575,-2.43048107376249
1.188,-2.41960464249601
1.19025,-2.40887436442542
1.1925,-2.39828731874055
1.19475,-2.38784065503537
1.197,-2.37753159136248
1.19925,-2.36735741235108
1.2015,-2.35731546738612
1.20375,-2.34740316884629
1.206,-2.33761799039872
1.20825,-2.32795746534822
1.2105,-2.31841918503926
1.21275,-2.30900079730847
1.215,-2.2997000049861
1.21725,-2.29051456444451
1.2195,-2.28144228419203
1.22175,-2.27248102351062
1.224,-2.26362869113561
1.22625,-2.25488324397626
1.2285,-2.24624268587546
1.23075,-2.23770506640735
1.233,-2.22926847971148
1.23525,-2.22093106336213
1.2375,-2.21269099727181
1.23975,-2.20454650262748
1.242,-2.19649584085855
1.24425,-2.18853731263545
1.2465,-2.18066925689788
1.24875,-2.17289004991153
1.251,-2.16519810435242
1.25325,-2.15759186841798
1.2555,-2.1500698249638
1.25775,-2.14263049066537
1.26,-2.13527241520388
1.26225,-2.12799418047528
1.2645,-2.12079439982187
1.26675,-2.11367171728569
1.269,-2.10662480688292
1.27125,-2.09965237189872
1.2735,-2.09275314420172
1.27575,-2.0859258835776
1.278,-2.07916937708124
1.28025,-2.07248243840658
1.2825,-2.06586390727389
1.28475,-2.05931264883386
1.287,-2.0528275530877
1.28925,-2.04640753432325
1.2915,-2.04005153056611
1.29375,-2.0337585030456
1.296,-2.02752743567506
1.29825,-2.02135733454594
1.3005,-2.01524722743539
1.30275,-2.00919616332685
1.305,-2.0032032119433
1.30725,-1.99726746329272
1.3095,-1.99138802722549
1.31175,-1.98556403300332
1.314,-1.97979462887929
1.31625,-1.97407898168889
1.3185,-1.96841627645147
1.32075,-1.96280571598199
1.323,-1.95724652051273
1.32525,-1.95173792732456
1.3275,-1.94627919038771
1.32975,-1.9408695800115
1.332,-1.93550838250305
1.33425,-1.9301948998345
1.3365,-1.92492844931862
1.33875,-1.91970836329251
1.341,-1.91453398880926
1.34325,-1.9094046873372
1.3455,-1.90431983446671
1.34775,-1.89927881962419
1.35,-1.8942810457932
