"Freq [GHz]","dB(St11) []"
0.45,-0.103629979682227
0.45225,-0.105684939039788
0.4545,-0.107781822695804
0.45675,-0.109921589499301
0.459,-0.112105222984161
0.46125,-0.11433373207372
0.4635,-0.116608151807422
0.46575,-0.118929544090312
0.468,-0.121298998466121
0.47025,-0.123717632914776
0.4725,-0.126186594675125
0.47475,-0.12870706109376
0.477,-0.131280240500828
0.47925,-0.133907373113752
0.4815,-0.136589731969797
0.48375,-0.139328623888494
0.486,-0.14212539046496
0.48825,-0.144981409095122
0.4905,-0.147898094034014
0.49275,-0.150876897488222
0.495,-0.153919310743722
0.49725,-0.157026865330288
0.4995,-0.160201134223733
0.50175,-0.163443733087367
0.504,-0.166756321553927
0.50625,-0.170140604549497
0.5085,-0.173598333660784
0.51075,-0.177131308547338
0.513,-0.180741378400249
0.51525,-0.184430443448935
0.5175,-0.188200456517732
0.51975,-0.192053424634034
0.522,-0.195991410689741
0.52425,-0.20001653515794
0.5265,-0.204130977866736
0.52875,-0.208336979832234
0.531,-0.212636845152761
0.53325,-0.217032942966472
0.5355,-0.221527709474602
0.53775,-0.22612365003261
0.54,-0.230823341311676
0.54225,-0.235629433532989
0.5445,-0.240544652777378
0.54675,-0.245571803372994
0.549,-0.250713770363704
0.55125,-0.255973522061146
0.5535,-0.261354112683281
0.55575,-0.266858685082564
0.558,-0.272490473566839
0.56025,-0.278252806816242
0.5625,-0.284149110899457
0.56475,-0.29018291239283
0.567,-0.296357841605931
0.56925,-0.302677635917299
0.5715,-0.3091461432242
0.57375,-0.315767325510381
0.576,-0.322545262535965
0.57825,-0.32948415565366
0.5805,-0.336588331755727
0.58275,-0.343862247356205
0.585,-0.351310492813037
0.58725,-0.358937796694989
0.5895,-0.366749030298228
0.59175,-0.374749212317778
0.594,-0.382943513679061
0.59625,-0.391337262535007
0.5985,-0.399935949434336
0.60075,-0.408745232666732
0.603,-0.417770943790951
0.60525,-0.427019093351831
0.6075,-0.436495876792615
0.60975,-0.446207680568972
0.612,-0.456161088471351
0.61425,-0.466362888162503
0.6165,-0.476820077937129
0.61875,-0.48753987371082
0.621,-0.498529716245658
0.62325,-0.509797278619921
0.6255,-0.52135047394969
0.62775,-0.533197463370099
0.63,-0.545346664284365
0.63225,-0.557806758888738
0.6345,-0.570586702981758
0.63675,-0.583695735066344
0.639,-0.597143385753377
0.64125,-0.610939487475626
0.6435,-0.625094184520927
0.64575,-0.639617943393784
0.648,-0.654521563514522
0.65025,-0.669816188265372
0.6525,-0.685513316392864
0.65475,-0.701624813776068
0.657,-0.718162925570223
0.65925,-0.735140288735382
0.6615,-0.752569944959745
0.66375,-0.77046535398734
0.666,-0.788840407359735
0.66825,-0.807709442581411
0.6705,-0.827087257718395
0.67275,-0.846989126439709
0.675,-0.867430813510977
0.67725,-0.888428590749592
0.6795,-0.909999253450493
0.68175,-0.932160137291547
0.684,-0.95492913572731
0.68625,-0.978324717879578
0.6885,-1.00236594693306
0.69075,-1.02707249904398
0.693,-1.05246468276926
0.69525,-1.07856345902349
0.6975,-1.10539046157041
0.69975,-1.13296801805542
0.702,-1.16131917158501
0.70425,-1.1904677028585
0.7065,-1.22043815285729
0.70875,-1.2512558460959
0.711,-1.28294691443889
0.71325,-1.3155383214873
0.7155,-1.3490578875374
0.71775,-1.38353431511446
0.72,-1.41899721508367
0.72225,-1.45547713333995
0.7245,-1.49300557807812
0.72675,-1.53161504764462
0.729,-1.57133905897193
0.73125,-1.61221217659678
0.7335,-1.65427004226333
0.73575,-1.69754940511299
0.738,-1.74208815246293
0.74025,-1.78792534117619
0.7425,-1.83510122962723
0.74475,-1.88365731026842
0.747,-1.93363634280417
0.74925,-1.98508238798208
0.7515,-2.03804084201259
0.75375,-2.09255847163184
0.756,-2.14868344982601
0.75825,-2.20646539223935
0.7605,-2.26595539429312
0.76275,-2.32720606904778
0.765,-2.39027158584697
0.76725,-2.45520770978858
0.7695,-2.52207184207584
0.77175,-2.59092306130931
0.774,-2.66182216579008
0.77625,-2.73483171691376
0.7785,-2.81001608374544
0.78075,-2.8874414888766
0.783,-2.96717605567611
0.78525,-3.04928985705914
0.7875,-3.13385496590923
0.78975,-3.22094550729975
0.792,-3.31063771267153
0.79425,-3.40300997613236
0.7965,-3.49814291305102
0.79875,-3.59611942112275
0.801,-3.69702474408328
0.80325,-3.80094653824331
0.8055,-3.90797494200372
0.80775,-4.01820264849048
0.81,-4.13172498141616
0.81225,-4.24863997422791
0.8145,-4.36904845253664
0.81675,-4.49305411973365
0.819,-4.62076364558427
0.82125,-4.75228675743474
0.8235,-4.88773633347128
0.82575,-5.02722849721692
0.828,-5.1708827121302
0.83025,-5.31882187476204
0.8325,-5.47117240441424
0.83475,-5.62806432659849
0.837,-5.78963134678725
0.83925,-5.95601090993805
0.8415,-6.12734424001223
0.84375,-6.30377635213533
0.846,-6.4854560280853
0.84825,-6.67253574334954
0.8505,-6.8651715309446
0.85275,-7.06352276339577
0.855,-7.26775182954177
0.85725,-7.47802367693373
0.8595,-7.69450518325148
0.86175,-7.91736431101009
0.864,-8.14676898843997
0.86625,-8.38288564526162
0.8685,-8.625877314494
0.87075,-8.87590118966081
0.873,-9.13310549988422
0.87525,-9.39762553234523
0.8775,-9.66957859131552
0.87975,-9.94905763428363
0.882,-10.2361232676121
0.88425,-10.5307937161222
0.8865,-10.8330323034049
0.88875,-11.1427318947003
0.891,-11.4596956672057
0.89325,-11.7836134942049
0.8955,-12.1140331782646
0.89775,-12.4503257762927
0.9,-12.7916443750568
0.90225,-13.1368759741604
0.9045,-13.4845867194875
0.90675,-13.8329617411665
0.909,-14.1797424458037
0.91125,-14.522166440679
0.9135,-14.856918386886
0.91575,-15.1801038239096
0.918,-15.4872617936524
0.92025,-15.7734346999616
0.9225,-16.0333133365
0.92475,-16.2614690405998
0.927,-16.4526716305552
0.92925,-16.6022714129347
0.9315,-16.7066000999299
0.93375,-16.7633269548561
0.936,-16.771702372652
0.93825,-16.7326372778141
0.9405,-16.6486006736126
0.94275,-16.5233580889604
0.945,-16.3616057961501
0.94725,-16.1685691481042
0.9495,-15.9496269353225
0.95175,-15.7100039539757
0.954,-15.4545505512335
0.95625,-15.1876083268716
0.9585,-14.9129488698677
0.96075,-14.6337672730423
0.963,-14.3527121999426
0.96525,-14.0719371337731
0.9675,-13.7931612720783
0.96975,-13.5177322170356
0.972,-13.2466856306082
0.97425,-12.9807992504048
0.9765,-12.7206401727672
0.97875,-12.466605256736
0.981,-12.2189550441328
0.98325,-11.9778418604826
0.9855,-11.743332859669
0.98775,-11.5154287728205
0.99,-11.2940790658084
0.99225,-11.0791941293453
0.9945,-10.8706550385238
0.99675,-10.6683213344526
0.999,-10.4720372042427
1.00125,-10.2816363688872
1.0035,-10.0969459317902
1.00575,-9.91778939319837
1.008,-9.74398899655861
1.01025,-9.57536754069485
1.0125,-9.41174976557384
1.01475,-9.25296339826767
1.017,-9.09883992864833
1.01925,-8.9492151706004
1.0215,-8.80392965348484
1.02375,-8.66282887970767
1.026,-8.52576347712072
1.02825,-8.39258926925887
1.0305,-8.26316728182718
1.03275,-8.13736370016304
1.035,-8.01504978943854
1.03725,-7.89610178698876
1.0395,-7.78040077424088
1.04175,-7.66783253418208
1.044,-7.55828739906981
1.04625,-7.45166009209426
1.0485,-7.34784956590548
1.05075,-7.24675884027573
1.053,-7.14829484065316
1.05525,-7.05236823894931
1.0575,-6.95889329757237
1.05975,-6.86778771745324
1.062,-6.77897249060026
1.06425,-6.69237175755075
1.0665,-6.60791266995405
1.06875,-6.52552525841634
1.071,-6.44514230565492
1.07325,-6.36669922494619
1.0755,-6.29013394380221
1.07775,-6.21538679277375
1.08,-6.14240039924988
1.08225,-6.07111958610459
1.0845,-6.00149127502627
1.08675,-5.93346439435771
1.089,-5.86698979126826
1.09125,-5.80202014807818
1.0935,-5.73850990255497
1.09575,-5.67641517200362
1.098,-5.61569368097605
1.10025,-5.55630469242922
1.1025,-5.49820894216686
1.10475,-5.441368576405
1.107,-5.38574709230777
1.10925,-5.33130928134624
1.1115,-5.27802117533885
1.11375,-5.22584999503916
1.116,-5.17476410114179
1.11825,-5.12473294758476
1.1205,-5.07572703703139
1.12275,-5.02771787842141
1.125,-4.98067794648611
1.12725,-4.93458064312811
1.1295,-4.8894002605711
1.13175,-4.84511194619028
1.134,-4.80169166893844
1.13625,-4.7591161872876
1.1385,-4.71736301861017
1.14075,-4.67641040992738
1.143,-4.63623730995723
1.14525,-4.59682334239719
1.1475,-4.55814878038063
1.14975,-4.52019452204929
1.152,-4.48294206718708
1.15425,-4.44637349486327
1.1565,-4.41047144203621
1.15875,-4.37521908307103
1.161,-4.34060011012751
1.16325,-4.30659871437622
1.1655,-4.27319956800369
1.16775,-4.24038780696906
1.17,-4.20814901447702
1.17225,-4.17646920513301
1.1745,-4.14533480974931
1.17675,-4.11473266077149
1.179,-4.08464997829667
1.18125,-4.0550743566564
1.1835,-4.02599375153835
1.18575,-3.99739646762225
1.188,-3.96927114670702
1.19025,-3.94160675630663
1.1925,-3.91439257869412
1.19475,-3.88761820037353
1.197,-3.86127350196088
1.19925,-3.83534864845628
1.2015,-3.80983407988977
1.20375,-3.7847205023249
1.206,-3.75999887920425
1.20825,-3.73566042302241
1.2105,-3.71169658731201
1.21275,-3.68809905892975
1.215,-3.66485975062958
1.21725,-3.64197079391069
1.2195,-3.61942453212907
1.22175,-3.59721351386136
1.224,-3.57533048651052
1.22625,-3.55376839014345
1.2285,-3.53252035155076
1.23075,-3.51157967851972
1.233,-3.49093985431165
1.23525,-3.47059453233544
1.2375,-3.45053753100922
1.23975,-3.43076282880267
1.242,-3.41126455945267
1.24425,-3.39203700734545
1.2465,-3.37307460305855
1.24875,-3.35437191905635
1.251,-3.33592366553305
1.25325,-3.31772468639742
1.2555,-3.29976995539372
1.25775,-3.2820545723536
1.26,-3.26457375957378
1.26225,-3.24732285831486
1.2645,-3.23029732541646
1.26675,-3.2134927300244
1.269,-3.19690475042557
1.27125,-3.18052917098648
1.2735,-3.16436187919162
1.27575,-3.14839886277777
1.278,-3.13263620696095
1.28025,-3.11707009175226
1.2825,-3.10169678935956
1.28475,-3.08651266167176
1.287,-3.07151415782273
1.28925,-3.05669781183185
1.2915,-3.04206024031853
1.29375,-3.02759814028799
1.296,-3.01330828698574
1.29825,-2.99918753181826
1.3005,-2.98523280033764
1.30275,-2.97144109028778
1.305,-2.95780946971011
1.30725,-2.9443350751066
1.3095,-2.93101510965818
1.31175,-2.9178468414966
1.314,-2.90482760202783
1.31625,-2.89195478430529
1.3185,-2.87922584145119
1.32075,-2.86663828512432
1.323,-2.85418968403265
1.32525,-2.84187766248934
1.3275,-2.82969989901063
1.32975,-2.81765412495422
1.332,-2.80573812319672
1.33425,-2.79394972684902
1.3365,-2.78228681800813
1.33875,-2.77074732654449
1.341,-2.7593292289234
1.34325,-2.74803054705962
1.3455,-2.73684934720389
1.34775,-2.72578373886054
1.35,-2.71483187373497
