"Freq [GHz]","dB(St11) []"
0.45,-0.0531027720330636
0.45225,-0.0541162783323958
0.4545,-0.055149397586304
0.45675,-0.0562025521115508
0.459,-0.0572761744636143
0.46125,-0.0583707077128726
0.4635,-0.0594866057290955
0.46575,-0.0606243334744372
0.468,-0.0617843673052533
0.47025,-0.0629671952830015
0.4725,-0.0641733174945694
0.47475,-0.0654032463822901
0.477,-0.0666575070839956
0.47925,-0.0679366377834588
0.4815,-0.0692411900715218
0.48375,-0.0705717293183249
0.486,-0.0719288350569452
0.48825,-0.0733131013789072
0.4905,-0.0747251373418834
0.49275,-0.0761655673900636
0.495,-0.0776350317875762
0.49725,-0.0791341870654325
0.4995,-0.0806637064824562
0.50175,-0.0822242805006378
0.504,-0.0838166172754647
0.50625,-0.0854414431617064
0.5085,-0.0870995032351752
0.51075,-0.0887915618310617
0.513,-0.090518403099359
0.51525,-0.0922808315780306
0.5175,-0.0940796727844749
0.51975,-0.0959157738259895
0.522,-0.0977900040298386
0.52425,-0.0997032555936594
0.5265,-0.101656444256894
0.52875,-0.103650509993997
0.531,-0.10568641773019
0.53325,-0.107765158080543
0.5355,-0.109887748113258
0.53775,-0.112055232137939
0.54,-0.114268682519826
0.54225,-0.116529200520846
0.5445,-0.118837917168498
0.54675,-0.121195994153533
0.549,-0.123604624757487
0.55125,-0.126065034811135
0.5535,-0.12857848368499
0.55575,-0.131146265313018
0.558,-0.133769709250727
0.56025,-0.136450181768958
0.5625,-0.139189086984623
0.56475,-0.141987868029753
0.567,-0.144848008260277
0.56925,-0.147771032505979
0.5715,-0.150758508363129
0.57375,-0.153812047531427
0.576,-0.156933307196791
0.57825,-0.160123991461805
0.5805,-0.163385852825492
0.58275,-0.166720693714323
0.585,-0.170130368066324
0.58725,-0.173616782970263
0.5895,-0.177181900362008
0.59175,-0.180827738780173
0.594,-0.184556375183261
0.59625,-0.18836994683064
0.5985,-0.192270653229752
0.60075,-0.196260758152034
0.603,-0.200342591720144
0.60525,-0.204518552569213
0.6075,-0.208791110084904
0.60975,-0.213162806721159
0.612,-0.217636260400741
0.61425,-0.222214167001609
0.6165,-0.226899302932497
0.61875,-0.231694527800992
0.621,-0.236602787177719
0.62325,-0.241627115460236
0.6255,-0.246770638840502
0.62775,-0.252036578379814
0.63,-0.257428253195367
0.63225,-0.262949083762694
0.6345,-0.268602595338396
0.63675,-0.27439242150781
0.639,-0.280322307862361
0.64125,-0.286396115811569
0.6435,-0.292617826534899
0.64575,-0.29899154507877
0.648,-0.305521504604284
0.65025,-0.312212070791496
0.6525,-0.319067746406128
0.65475,-0.326093176035009
0.657,-0.333293150996664
0.65925,-0.340672614433719
0.6615,-0.348236666594087
0.66375,-0.355990570308107
0.666,-0.363939756669095
0.66825,-0.372089830925024
0.6705,-0.380446578589362
0.67275,-0.389015971779334
0.675,-0.397804175790203
0.67725,-0.406817555914485
0.6795,-0.416062684515271
0.68175,-0.425546348363196
0.684,-0.43527555624691
0.68625,-0.445257546867224
0.6885,-0.455499797025468
0.69075,-0.466010030116941
0.693,-0.476796224940683
0.69525,-0.487866624837153
0.6975,-0.49922974716581
0.69975,-0.510894393134908
0.702,-0.522869657996224
0.70425,-0.535164941617842
0.7065,-0.54778995944848
0.70875,-0.560754753887207
0.711,-0.574069706072885
0.71325,-0.587745548107914
0.7155,-0.601793375731458
0.71775,-0.616224661457467
0.72,-0.631051268193466
0.72225,-0.646285463356238
0.7245,-0.661939933501084
0.72675,-0.678027799481588
0.729,-0.694562632157284
0.73125,-0.711558468666881
0.7335,-0.729029829285129
0.73575,-0.746991734881725
0.738,-0.765459725000854
0.74025,-0.784449876580487
0.7425,-0.803978823330579
0.74475,-0.824063775789762
0.747,-0.844722542080218
0.74925,-0.865973549380737
0.7515,-0.887835866138008
0.75375,-0.910329225036463
0.756,-0.933474046747013
0.75825,-0.957291464475134
0.7605,-0.981803349328758
0.76275,-1.00703233652655
0.765,-1.03300185246693
0.76725,-1.05973614267825
0.7695,-1.08726030067057
0.77175,-1.11560029770893
0.774,-1.14478301352843
0.77625,-1.17483626801062
0.7785,-1.20578885384106
0.78075,-1.2376705701673
0.783,-1.27051225727637
0.78525,-1.30434583231098
0.7875,-1.33920432604284
0.78975,-1.3751219207219
0.792,-1.41213398901992
0.79425,-1.4502771340868
0.7965,-1.48958923073821
0.79875,-1.53010946779327
0.801,-1.57187839158132
0.80325,-1.61493795063767
0.8055,-1.65933154160859
0.80775,-1.70510405638752
0.81,-1.75230193050553
0.81225,-1.80097319280115
0.8145,-1.85116751639714
0.81675,-1.90293627101463
0.819,-1.95633257665873
0.82125,-2.01141135871402
0.8235,-2.0682294044934
0.82575,-2.12684542128992
0.828,-2.18732009598819
0.83025,-2.24971615630003
0.8325,-2.31409843369854
0.83475,-2.38053392813511
0.837,-2.44909187463618
0.83925,-2.51984381188956
0.8415,-2.59286365294551
0.84375,-2.66822775817364
0.846,-2.74601501063496
0.84825,-2.82630689404751
0.8505,-2.90918757354459
0.85275,-2.99474397944626
0.855,-3.08306589428703
0.85725,-3.17424604336543
0.8595,-3.2683801891031
0.86175,-3.36556722952205
0.864,-3.46590930116742
0.86625,-3.56951188681716
0.8685,-3.67648392832915
0.87075,-3.78693794497635
0.873,-3.90099015760914
0.87525,-4.01876061895754
0.8775,-4.14037335033766
0.87975,-4.26595648495245
0.882,-4.39564241786579
0.88425,-4.5295679625733
0.8865,-4.66787451387717
0.88875,-4.81070821648257
0.891,-4.95822013834503
0.89325,-5.11056644728881
0.8955,-5.26790858874925
0.89775,-5.430413461627
0.9,-5.59825358812308
0.90225,-5.77160727198397
0.9045,-5.95065873773569
0.90675,-6.13559824111627
0.909,-6.32662213788061
0.91125,-6.52393289427304
0.9135,-6.72773901750133
0.91575,-6.93825487820999
0.918,-7.1557003888497
0.92025,-7.38030049149265
0.9225,-7.61228439541679
0.92475,-7.85188448788548
0.927,-8.09933481996746
0.92925,-8.35486904169877
0.9315,-8.61871762578801
0.93375,-8.8911041744346
0.936,-9.17224054727088
0.93825,-9.46232047713096
0.9405,-9.76151125109441
0.94275,-10.0699429237126
0.945,-10.3876943944806
0.94725,-10.7147755207684
0.9495,-11.0511042519628
0.95175,-11.3964775681135
0.954,-11.7505348060238
0.95625,-12.1127117963775
0.9585,-12.4821841885682
0.96075,-12.8577985271352
0.963,-13.2379902595849
0.96525,-13.6206891892938
0.9675,-14.0032153316363
0.96975,-14.3821721458666
0.972,-14.753350090917
0.97425,-15.1116614024941
0.9765,-15.4511359944291
0.97875,-15.7650158661751
0.981,-16.045986547078
0.98325,-16.2865723892107
0.9855,-16.4796923517238
0.98775,-16.6193249268418
0.99,-16.7011773555966
0.99225,-16.7232192690557
0.9945,-16.6859493839431
0.99675,-16.5923238267676
0.999,-16.4473656691076
1.00125,-16.2575575593646
1.0035,-16.0301587314809
1.00575,-15.7725757536227
1.008,-15.4918703415526
1.01025,-15.194433988772
1.0125,-14.8858178363362
1.01475,-14.5706841140223
1.017,-14.2528399314172
1.01925,-13.9353186989306
1.0215,-13.6204830214423
1.02375,-13.3101316753507
1.026,-13.0056004527576
1.02825,-12.7078517854829
1.0305,-12.4175513684424
1.03275,-12.1351319320105
1.035,-11.8608453071196
1.03725,-11.5948043356655
1.0395,-11.3370162500176
1.04175,-11.0874090404943
1.044,-10.8458521469083
1.04625,-10.6121726057682
1.0485,-10.3861675878765
1.05075,-10.1676140853993
1.053,-9.95627635755093
1.05525,-9.75191161964588
1.0575,-9.55427435901906
1.05975,-9.36311957996251
1.062,-9.17820521505568
1.06425,-8.99929388901562
1.0665,-8.82615418081814
1.06875,-8.65856149812187
1.071,-8.49629865315741
1.07325,-8.33915620975872
1.0755,-8.18693265596331
1.07775,-8.03943444466461
1.08,-7.89647593545237
1.08225,-7.75787926345339
1.0845,-7.62347415524851
1.08675,-7.49309770744495
1.089,-7.36659413995673
1.09125,-7.24381453328288
1.0935,-7.12461655690284
1.09575,-7.0088641942113
1.098,-6.89642746808099
1.10025,-6.78718217010132
1.1025,-6.68100959572524
1.10475,-6.57779628692214
1.107,-6.47743378344004
1.10925,-6.3798183833985
1.1115,-6.28485091363792
1.11375,-6.19243651002566
1.116,-6.10248440774758
1.11825,-6.01490774148531
1.1205,-5.92962335528411
1.12275,-5.84655162184755
1.125,-5.76561627094732
1.12725,-5.68674422660367
1.1295,-5.60986545267262
1.13175,-5.53491280646584
1.134,-5.46182190002565
1.13625,-5.39053096868051
1.1385,-5.3209807465128
1.14075,-5.25311434838015
1.143,-5.18687715814334
1.14525,-5.122216722767
1.1475,-5.05908265197302
1.14975,-4.99742652314166
1.152,-4.93720179116922
1.15425,-4.87836370300681
1.1565,-4.82086921661821
1.15875,-4.76467692410958
1.161,-4.70974697879709
1.16325,-4.65604102599162
1.1655,-4.60352213729244
1.16775,-4.55215474819362
1.17,-4.50190459881826
1.17225,-4.45273867760665
1.1745,-4.40462516779432
1.17675,-4.35753339652619
1.179,-4.31143378646134
1.18125,-4.26629780973227
1.1835,-4.22209794413014
1.18575,-4.17880763139515
1.188,-4.13640123749839
1.19025,-4.09485401480835
1.1925,-4.05414206604109
1.19475,-4.01424230989967
1.197,-3.97513244831325
1.19925,-3.93679093519201
1.2015,-3.89919694661872
1.20375,-3.86233035240219
1.206,-3.82617168892236
1.20825,-3.79070213320092
1.2105,-3.75590347813455
1.21275,-3.72175810883212
1.215,-3.68824898000004
1.21725,-3.6553595943233
1.2195,-3.62307398179242
1.22175,-3.59137667992968
1.224,-3.56025271487019
1.22625,-3.52968758325598
1.2285,-3.49966723490358
1.23075,-3.47017805620762
1.233,-3.44120685424511
1.23525,-3.41274084154681
1.2375,-3.38476762150404
1.23975,-3.35727517438085
1.242,-3.33025184390317
1.24425,-3.30368632439778
1.2465,-3.27756764845589
1.24875,-3.25188517509666
1.251,-3.22662857840813
1.25325,-3.20178783664333
1.2555,-3.17735322175124
1.25775,-3.15331528932269
1.26,-3.12966486893267
1.26225,-3.10639305486136
1.2645,-3.08349119717688
1.26675,-3.06095089316404
1.269,-3.03876397908352
1.27125,-3.01692252224735
1.2735,-2.99541881339673
1.27575,-2.97424535936913
1.278,-2.95339487604228
1.28025,-2.93286028154312
1.2825,-2.91263468971048
1.28475,-2.89271140380059
1.287,-2.87308391042544
1.28925,-2.85374587371385
1.2915,-2.83469112968641
1.29375,-2.81591368083487
1.296,-2.79740769089807
1.29825,-2.77916747982589
1.3005,-2.76118751892376
1.30275,-2.74346242617034
1.305,-2.72598696170131
1.30725,-2.70875602345258
1.3095,-2.69176464295656
1.31175,-2.67500798128536
1.314,-2.65848132513503
1.31625,-2.64218008304539
1.3185,-2.62609978174997
1.32075,-2.61023606265106
1.323,-2.59458467841495
1.32525,-2.57914148968271
1.3275,-2.56390246189211
1.32975,-2.54886366220628
1.332,-2.53402125654511
1.33425,-2.51937150671552
1.3365,-2.50491076763683
1.33875,-2.49063548465749
1.341,-2.47654219096005
1.34325,-2.46262750505078
1.3455,-2.44888812833098
1.34775,-2.43532084274687
1.35,-2.42192250851524
