"Freq [GHz]","dB(St11) []"
0.45,-0.165607189459032
0.45225,-0.169229350430827
0.4545,-0.172936283867185
0.45675,-0.176730257276501
0.459,-0.180613607220117
0.46125,-0.184588741664745
0.4635,-0.188658142423085
0.46575,-0.192824367686162
0.468,-0.197090054651111
0.47025,-0.201457922248293
0.4725,-0.205930773971737
0.47475,-0.210511500817144
0.477,-0.21520308433183
0.47925,-0.220008599781154
0.4815,-0.224931219436235
0.48375,-0.229974215987873
0.486,-0.235140966091898
0.48825,-0.240434954051324
0.4905,-0.245859775640898
0.49275,-0.251419142080003
0.495,-0.257116884159908
0.49725,-0.262956956531834
0.4995,-0.268943442162435
0.50175,-0.275080556963612
0.504,-0.281372654603905
0.50625,-0.287824231508946
0.5085,-0.294439932058846
0.51075,-0.30122455399065
0.513,-0.308183054014373
0.51525,-0.31532055365151
0.5175,-0.322642345305213
0.51975,-0.330153898571747
0.522,-0.337860866803295
0.52425,-0.345769093932466
0.5265,-0.35388462156942
0.52875,-0.362213696382869
0.531,-0.37076277777674
0.53325,-0.379538545874723
0.5355,-0.388547909825445
0.53775,-0.397798016441483
0.54,-0.40729625918605
0.54225,-0.41705028752158
0.5445,-0.427068016635152
0.54675,-0.437357637556197
0.549,-0.447927627682525
0.55125,-0.458786761731362
0.5535,-0.469944123132697
0.55575,-0.481409115882892
0.558,-0.493191476877183
0.56025,-0.505301288740395
0.5625,-0.517748993175865
0.56475,-0.530545404853313
0.567,-0.543701725857146
0.56925,-0.557229560717386
0.5715,-0.571140932046231
0.57375,-0.585448296803978
0.576,-0.600164563218878
0.57825,-0.615303108386252
0.5805,-0.630877796573043
0.58275,-0.646902998254752
0.585,-0.663393609912554
0.58725,-0.680365074619244
0.5895,-0.697833403443413
0.59175,-0.715815197702169
0.594,-0.734327672093479
0.59625,-0.753388678740081
0.5985,-0.773016732177664
0.60075,-0.793231035320904
0.603,-0.814051506441643
0.60525,-0.835498807194337
0.6075,-0.857594371724643
0.60975,-0.880360436897725
0.612,-0.903820073683629
0.61425,-0.927997219737688
0.6165,-0.952916713214698
0.61875,-0.978604327856108
0.621,-1.00508680939023
0.62325,-1.03239191328592
0.6255,-1.06054844390091
0.62775,-1.08958629506633
0.63,-1.11953649214969
0.63225,-1.15043123563905
0.6345,-1.18230394629154
0.63675,-1.21518931189019
0.639,-1.24912333565342
0.64125,-1.28414338634235
0.6435,-1.3202882501117
0.64575,-1.35759818415113
0.648,-1.39611497216465
0.65025,-1.43588198173718
0.6525,-1.47694422363868
0.65475,-1.51934841311833
0.657,-1.563143033243
0.65925,-1.60837840033754
0.6615,-1.65510673158728
0.66375,-1.70338221486721
0.666,-1.75326108086734
0.66825,-1.80480167758917
0.6705,-1.85806454729547
0.67275,-1.91311250600368
0.675,-1.97001072562294
0.67725,-2.02882681884656
0.6795,-2.08963092692507
0.68175,-2.15249581046098
0.684,-2.21749694338486
0.68625,-2.28471261029355
0.6885,-2.35422400735611
0.69075,-2.4261153470213
0.693,-2.50047396679257
0.69525,-2.5773904423732
0.6975,-2.65695870552567
0.69975,-2.73927616703586
0.702,-2.82444384522482
0.70425,-2.91256650050859
0.7065,-3.00375277657101
0.70875,-3.09811534878395
0.711,-3.19577108058679
0.71325,-3.29684118861871
0.7155,-3.40145141748631
0.71775,-3.50973222514147
0.72,-3.62181897994152
0.72225,-3.73785217056191
0.7245,-3.85797763002912
0.72675,-3.98234677523422
0.729,-4.1111168633709
0.73125,-4.24445126680768
0.7335,-4.38251976794535
0.73575,-4.52549887561252
0.738,-4.67357216450072
0.74025,-4.82693063901246
0.7425,-4.98577312266297
0.74475,-5.15030667380225
0.747,-5.32074702785704
0.74925,-5.49731906546858
0.7515,-5.68025730473286
0.75375,-5.86980641412173
0.756,-6.06622174042091
0.75825,-6.26976984296345
0.7605,-6.48072902128982
0.76275,-6.6993898177704
0.765,-6.92605546919357
0.76725,-7.16104227120614
0.7695,-7.40467980591665
0.77175,-7.65731096476456
0.774,-7.91929167433468
0.77625,-8.19099020003315
0.7785,-8.47278585856741
0.78075,-8.76506691114701
0.783,-9.06822733009017
0.78525,-9.38266202523853
0.7875,-9.70875997423149
0.78975,-10.0468945105842
0.792,-10.3974097708655
0.79425,-10.7606019691239
0.7965,-11.1366937327183
0.79875,-11.525799178929
0.801,-11.9278767233338
0.80325,-12.3426657976421
0.8055,-12.7696027749017
0.80775,-13.2077106136129
0.81,-13.6554563892607
0.81225,-14.110571660973
0.8145,-14.569833717911
0.81675,-15.0288130593174
0.819,-15.4816065664797
0.82125,-15.9205993397122
0.8235,-16.3363316581044
0.82575,-16.7175851411449
0.828,-17.0518257315099
0.83025,-17.326117245454
0.8325,-17.5285111338443
0.83475,-17.6497210273921
0.837,-17.6846759063159
0.83925,-17.6334566365999
0.8415,-17.5012730623657
0.84375,-17.2974904447963
0.846,-17.034060276598
0.84825,-16.7238514681417
0.8505,-16.3792798941022
0.85275,-16.0114175887343
0.855,-15.6295689665509
0.85725,-15.2411976606228
0.8595,-14.8520666953349
0.86175,-14.4664795007295
0.864,-14.0875469885758
0.86625,-13.7174390019628
0.8685,-13.3576015012236
0.87075,-13.008934586178
0.873,-12.6719335227625
0.87525,-12.3467978995559
0.8775,-12.0335147473071
0.87975,-11.7319210801653
0.882,-11.4417505211603
0.88425,-11.1626677954018
0.8865,-10.8942940661953
0.88875,-10.6362254070764
0.891,-10.3880461539191
0.89325,-10.1493384523916
0.8955,-9.91968898704873
0.89775,-9.69869362898677
0.9,-9.48596055141696
0.90225,-9.28111222210023
0.9045,-9.08378657676907
0.90675,-8.89363759953325
0.909,-8.71033547806553
0.91125,-8.53356645800387
0.9135,-8.36303248869701
0.91575,-8.19845072832823
0.918,-8.0395529584819
0.92025,-7.88608494480716
0.9225,-7.73780577042723
0.92475,-7.59448716127698
0.927,-7.45591281698943
0.92925,-7.32187775681249
0.9315,-7.19218768696593
0.93375,-7.0666583935785
0.936,-6.94511516367536
0.93825,-6.82739223546797
0.9405,-6.71333227831907
0.94275,-6.6027859021284
0.945,-6.49561119544842
0.94725,-6.39167329134356
0.9495,-6.29084395981594
0.95175,-6.19300122550682
0.954,-6.09802900932685
0.95625,-6.00581679265177
0.9585,-5.91625930273425
0.96075,-5.82925621801615
0.963,-5.74471189207299
0.96525,-5.66253509497922
0.9675,-5.58263877094414
0.96975,-5.50493981113288
0.972,-5.42935884065143
0.97425,-5.3558200187389
0.9765,-5.28425085127227
0.97875,-5.21458201474905
0.981,-5.14674719097019
0.98325,-5.08068291169978
0.9855,-5.01632841262872
0.98775,-4.95362549601785
0.99,-4.89251840143988
0.99225,-4.83295368408195
0.9945,-4.77488010010844
0.99675,-4.71824849862037
0.999,-4.66301171978046
1.00125,-4.60912449870426
1.0035,-4.55654337474584
1.00575,-4.50522660583349
1.008,-4.45513408753489
1.01025,-4.40622727655409
1.0125,-4.35846911838341
1.01475,-4.31182397885269
1.017,-4.26625757933628
1.01925,-4.22173693539455
1.0215,-4.17823029864204
1.02375,-4.13570710164849
1.026,-4.09413790569212
1.02825,-4.05349435119649
1.0305,-4.01374911069367
1.03275,-3.97487584416674
1.035,-3.9368491566342
1.03725,-3.89964455784802
1.0395,-3.86323842398508
1.04175,-3.82760796121969
1.044,-3.79273117107181
1.04625,-3.75858681743246
1.0485,-3.72515439517373
1.05075,-3.69241410025678
1.053,-3.66034680125637
1.05525,-3.62893401222563
1.0575,-3.59815786682928
1.05975,-3.56800109367779
1.062,-3.53844699279925
1.06425,-3.50947941318923
1.0665,-3.48108273138253
1.06875,-3.45324183099395
1.071,-3.42594208317851
1.07325,-3.39916932796399
1.0755,-3.37290985641176
1.07775,-3.34715039356419
1.08,-3.32187808213924
1.08225,-3.29708046693523
1.0845,-3.27274547991061
1.08675,-3.24886142590574
1.089,-3.22541696897527
1.09125,-3.20240111930164
1.0935,-3.1798032206617
1.09575,-3.15761293841992
1.098,-3.13582024802317
1.10025,-3.11441542397346
1.1025,-3.09338902925601
1.10475,-3.07273190520142
1.107,-3.05243516176189
1.10925,-3.03249016818218
1.1115,-3.01288854404727
1.11375,-2.99362215068962
1.116,-2.97468308293937
1.11825,-2.95606366120246
1.1205,-2.93775642385145
1.12275,-2.91975411991543
1.125,-2.90204970205558
1.12725,-2.88463631981372
1.1295,-2.86750731312193
1.13175,-2.8506562060618
1.134,-2.83407670086237
1.13625,-2.81776267212654
1.1385,-2.80170816127606
1.14075,-2.78590737120567
1.143,-2.77035466113762
1.14525,-2.75504454166789
1.1475,-2.73997166999619
1.14975,-2.72513084533187
1.152,-2.71051700446852
1.15425,-2.6961252175201
1.1565,-2.68195068381207
1.15875,-2.66798872792097
1.161,-2.65423479585653
1.16325,-2.64068445138035
1.1655,-2.62733337245563
1.16775,-2.61417734782277
1.17,-2.6012122736956
1.17225,-2.58843415057355
1.1745,-2.57583908016497
1.17675,-2.56342326241743
1.179,-2.55118299265051
1.18125,-2.53911465878725
1.1835,-2.52721473868024
1.18575,-2.51547979752882
1.188,-2.50390648538362
1.19025,-2.49249153473538
1.1925,-2.48123175818448
1.19475,-2.47012404618832
1.197,-2.45916536488347
1.19925,-2.44835275397974
1.2015,-2.43768332472354
1.20375,-2.42715425792778
1.206,-2.41676280206601
1.20825,-2.40650627142812
1.2105,-2.39638204433563
1.21275,-2.38638756141407
1.215,-2.37652032392056
1.21725,-2.36677789212445
1.2195,-2.35715788373906
1.22175,-2.3476579724028
1.224,-2.33827588620765
1.22625,-2.32900940627353
1.2285,-2.31985636536674
1.23075,-2.31081464656093
1.233,-2.30188218193913
1.23525,-2.29305695133532
1.2375,-2.28433698111421
1.23975,-2.27572034298776
1.242,-2.26720515286728
1.24425,-2.25878956974983
1.2465,-2.25047179463763
1.24875,-2.2422500694895
1.251,-2.23412267620308
1.25325,-2.22608793562686
1.2555,-2.21814420660091
1.25775,-2.21028988502546
1.26,-2.20252340295628
1.26225,-2.19484322772594
1.2645,-2.18724786109017
1.26675,-2.17973583839845
1.269,-2.17230572778796
1.27125,-2.16495612940012
1.2735,-2.1576856746191
1.27575,-2.15049302533142
1.278,-2.143376873206
1.28025,-2.13633593899406
1.2825,-2.12936897184808
1.28475,-2.12247474865937
1.287,-2.11565207341355
1.28925,-2.10889977656333
1.2915,-2.10221671441815
1.29375,-2.09560176855009
1.296,-2.08905384521549
1.29825,-2.08257187479184
1.3005,-2.07615481122949
1.30275,-2.06980163151762
1.305,-2.06351133516411
1.30725,-2.05728294368886
1.3095,-2.05111550013014
1.31175,-2.04500806856357
1.314,-2.03895973363336
1.31625,-2.0329696000954
1.3185,-2.02703679237194
1.32075,-2.02116045411735
1.323,-2.01533974779484
1.32525,-2.00957385426359
1.3275,-2.00386197237621
1.32975,-1.99820331858601
1.332,-1.99259712656396
1.33425,-1.98704264682502
1.3365,-1.98153914636345
1.33875,-1.97608590829709
1.341,-1.97068223152006
1.34325,-1.9653274303639
1.3455,-1.96002083426674
1.34775,-1.95476178745037
1.35,-1.94954964860494
