"Freq [GHz]","dB(St11) []"
0.45,-0.0927921253248501
0.45225,-0.0946085347404712
0.4545,-0.0964613426296353
0.45675,-0.0983513642194125
0.459,-0.100279435274732
0.46125,-0.102246412671897
0.4635,-0.104253174989717
0.46575,-0.106300623118808
0.468,-0.108389680889696
0.47025,-0.110521295720336
0.4725,-0.112696439283681
0.47475,-0.114916108196009
0.477,-0.117181324726642
0.47925,-0.119493137529868
0.4815,-0.121852622399695
0.48375,-0.124260883048306
0.486,-0.126719051908977
0.48825,-0.129228290964264
0.4905,-0.131789792600341
0.49275,-0.13440478048839
0.495,-0.137074510493908
0.49725,-0.139800271614948
0.4995,-0.142583386950217
0.50175,-0.145425214698104
0.504,-0.148327149187663
0.50625,-0.151290621942647
0.5085,-0.154317102779741
0.51075,-0.157408100942156
0.513,-0.160565166269811
0.51525,-0.163789890407345
0.5175,-0.167083908051279
0.51975,-0.170448898237675
0.522,-0.173886585671692
0.52425,-0.177398742100473
0.5265,-0.180987187730896
0.52875,-0.184653792693713
0.531,-0.188400478555694
0.53325,-0.192229219881459
0.5355,-0.196142045846714
0.53775,-0.20014104190465
0.54,-0.204228351507429
0.54225,-0.208406177884588
0.5445,-0.212676785880408
0.54675,-0.217042503852267
0.549,-0.221505725632141
0.55125,-0.226068912553393
0.5535,-0.230734595545211
0.55575,-0.235505377296975
0.558,-0.240383934495047
0.56025,-0.245373020134496
0.5625,-0.250475465908354
0.56475,-0.255694184677141
0.567,-0.261032173021422
0.56925,-0.266492513880303
0.5715,-0.272078379278892
0.57375,-0.277793033147746
0.576,-0.283639834237571
0.57825,-0.289622239132454
0.5805,-0.295743805365045
0.58275,-0.302008194637227
0.585,-0.308419176149914
0.58725,-0.314980630045756
0.5895,-0.32169655096865
0.59175,-0.328571051744051
0.594,-0.335608367184249
0.59625,-0.342812858022912
0.5985,-0.35018901498325
0.60075,-0.357741462984436
0.603,-0.365474965490915
0.60525,-0.373394429009479
0.6075,-0.381504907739066
0.60975,-0.389811608378457
0.612,-0.398319895097135
0.61425,-0.407035294674744
0.6165,-0.415963501814772
0.61875,-0.425110384638202
0.621,-0.434481990363043
0.62325,-0.444084551175862
0.6255,-0.453924490301475
0.62775,-0.464008428277327
0.63,-0.474343189439003
0.63225,-0.484935808623714
0.6345,-0.495793538098589
0.63675,-0.506923854720868
0.639,-0.518334467337205
0.64125,-0.530033324429486
0.6435,-0.54202862201468
0.64575,-0.554328811806445
0.648,-0.566942609646318
0.65025,-0.579879004212478
0.6525,-0.593147266014248
0.65475,-0.606756956680578
0.657,-0.620717938550897
0.65925,-0.635040384576879
0.6615,-0.64973478854373
0.66375,-0.6648119756197
0.666,-0.680283113242686
0.66825,-0.696159722352756
0.6705,-0.712453688979582
0.67275,-0.729177276193764
0.675,-0.746343136431066
0.67725,-0.763964324198632
0.6795,-0.782054309172173
0.68175,-0.80062698969318
0.684,-0.819696706675084
0.68625,-0.839278257927276
0.6885,-0.859386912905768
0.69075,-0.8800384278992
0.693,-0.901249061658658
0.69525,-0.92303559147974
0.6975,-0.945415329744956
0.69975,-0.96840614093441
0.702,-0.992026459112449
0.70425,-1.01629530589761
0.7065,-1.04123230892297
0.70875,-1.06685772079356
0.711,-1.09319243854725
0.71325,-1.12025802362498
0.7155,-1.14807672235592
0.71775,-1.17667148696258
0.72,-1.20606599709055
0.72225,-1.23628468186702
0.7245,-1.26735274249173
0.72675,-1.29929617536352
0.729,-1.3321417957454
0.73125,-1.36591726197019
0.7335,-1.4006511001888
0.73575,-1.4363727296625
0.738,-1.47311248860051
0.74025,-1.51090166054365
0.7425,-1.54977250129496
0.74475,-1.58975826639787
0.747,-1.63089323916277
0.74925,-1.67321275924292
0.7515,-1.71675325176118
0.75375,-1.76155225698948
0.756,-1.80764846058405
0.75825,-1.8550817243803
0.7605,-1.90389311775294
0.76275,-1.95412494954858
0.765,-2.00582080060013
0.76725,-2.05902555683532
0.7695,-2.11378544299424
0.77175,-2.17014805697481
0.774,-2.22816240482893
0.77625,-2.28787893643706
0.7785,-2.3493495818941
0.78075,-2.41262778864563
0.783,-2.47776855942013
0.78525,-2.54482849101034
0.7875,-2.61386581396476
0.78975,-2.68494043325929
0.792,-2.75811397002814
0.79425,-2.83344980444332
0.7965,-2.91101311984224
0.79875,-2.99087094821373
0.801,-3.07309221716384
0.80325,-3.15774779849322
0.8055,-3.2449105585286
0.80775,-3.3346554103599
0.81,-3.42705936814291
0.81225,-3.52220160363329
0.8145,-3.62016350512062
0.81675,-3.72102873893032
0.819,-3.82488331365524
0.82125,-3.93181564726532
0.8235,-4.04191663722204
0.82575,-4.15527973369106
0.828,-4.27200101589908
0.83025,-4.39217927161543
0.8325,-4.51591607965129
0.83475,-4.64331589515332
0.837,-4.77448613731842
0.83925,-4.90953727896194
0.8415,-5.04858293712499
0.84375,-5.19173996359248
0.846,-5.33912853379832
0.84825,-5.49087223209651
0.8505,-5.64709813075457
0.85275,-5.80793685924658
0.855,-5.97352265945191
0.85725,-6.14399342115498
0.8595,-6.31949069073352
0.86175,-6.50015964404737
0.864,-6.68614901220562
0.86625,-6.87761094598736
0.8685,-7.07470080108069
0.87075,-7.2775768218142
0.873,-7.48639969546952
0.87525,-7.70133194231865
0.8775,-7.92253709789451
0.87975,-8.15017863327692
0.882,-8.38441854586138
0.88425,-8.62541553658339
0.8865,-8.87332266917681
0.88875,-9.12828438192394
0.891,-9.39043269155005
0.89325,-9.65988239139435
0.8955,-9.93672500069846
0.89775,-10.2210211678755
0.9,-10.5127911674284
0.90225,-10.8120030580977
0.9045,-11.1185579907457
0.90675,-11.432272073119
0.909,-11.75285412426
0.91125,-12.0798786005558
0.9135,-12.4127529758907
0.91575,-12.7506789538721
0.918,-13.0926071463634
0.92025,-13.4371853628508
0.9225,-13.7827015424509
0.92475,-14.1270237699822
0.927,-14.4675418897156
0.92925,-14.8011180375681
0.9315,-15.1240568446623
0.93375,-15.4321096592115
0.936,-15.7205298788708
0.93825,-15.9841967137202
0.9405,-16.2178202664551
0.94275,-16.4162298246635
0.945,-16.5747294157837
0.94725,-16.6894828453622
0.9495,-16.757871281809
0.95175,-16.7787587454572
0.954,-16.7526112699795
0.95625,-16.6814438315056
0.9585,-16.5686067143711
0.96075,-16.418456340722
0.963,-16.2359734866824
0.96525,-16.0263906528455
0.9675,-15.794874617049
0.96975,-15.5462884322599
0.972,-15.2850371816691
0.97425,-15.0149880354248
0.9765,-14.7394483391491
0.97875,-14.461184141585
0.981,-14.182463566965
0.98325,-13.9051128570475
0.9855,-13.6305764840493
0.98775,-13.3599758144437
0.99,-13.0941631602576
0.99225,-12.833769707332
0.9945,-12.579246882802
0.99675,-12.3309013649966
0.999,-12.0889242814242
1.00125,-11.853415289411
1.0035,-11.6244022651918
1.00575,-11.4018572923996
1.008,-11.1857095732606
1.01025,-10.9758558057513
1.0125,-10.7721684892725
1.01475,-10.5745025462739
1.017,-10.3827005805242
1.01925,-10.1965970352164
1.0215,-10.0160214655472
1.02375,-9.84080110001281
1.026,-9.67076283139863
1.02825,-9.50573475124821
1.0305,-9.34554731949373
1.03275,-9.19003424303085
1.035,-9.03903312256394
1.03725,-8.89238591539664
1.0395,-8.74993925246
1.04175,-8.61154464032426
1.044,-8.47705857286956
1.04625,-8.34634257240986
1.0485,-8.21926317613869
1.05075,-8.09569188060697
1.053,-7.97550505440238
1.05525,-7.85858382715362
1.0575,-7.74481396133663
1.05975,-7.63408571203281
1.062,-7.52629367872153
1.06425,-7.42133665232839
1.0665,-7.31911746005838
1.06875,-7.21954280998455
1.071,-7.12252313691554
1.07325,-7.02797245070393
1.0755,-6.93580818786859
1.07775,-6.84595106717333
1.08,-6.75832494961794
1.08225,-6.67285670315224
1.0845,-6.58947607230528
1.08675,-6.50811555283142
1.089,-6.42871027140152
1.09125,-6.35119787031257
1.0935,-6.27551839714543
1.09575,-6.20161419926791
1.098,-6.12942982305645
1.10025,-6.05891191769214
1.1025,-5.9900091433748
1.10475,-5.9226720837913
1.107,-5.85685316266959
1.10925,-5.7925065642488
1.1115,-5.72958815749585
1.11375,-5.66805542390118
1.116,-5.60786738868948
1.11825,-5.54898455528551
1.1205,-5.49136884288
1.12275,-5.43498352694598
1.125,-5.37979318256125
1.12725,-5.32576363039901
1.1295,-5.27286188525411
1.13175,-5.22105610697856
1.134,-5.17031555370556
1.13625,-5.12061053724723
1.1385,-5.07191238055672
1.14075,-5.02419337715072
1.143,-4.97742675239371
1.14525,-4.93158662655036
1.1475,-4.88664797951704
1.14975,-4.84258661714848
1.152,-4.79937913909954
1.15425,-4.75700290810651
1.1565,-4.71543602063633
1.15875,-4.6746572788358
1.161,-4.63464616371658
1.16325,-4.59538280951502
1.1655,-4.55684797916929
1.16775,-4.51902304085917
1.17,-4.48188994555683
1.17225,-4.44543120553959
1.1745,-4.40962987381836
1.17675,-4.37446952443785
1.179,-4.33993423360678
1.18125,-4.30600856161885
1.1835,-4.27267753552688
1.18575,-4.2399266325349
1.188,-4.20774176407437
1.19025,-4.17610926053288
1.1925,-4.14501585660488
1.19475,-4.11444867723597
1.197,-4.08439522413341
1.19925,-4.05484336281708
1.2015,-4.0257813101863
1.20375,-3.99719762257928
1.206,-3.96908118430306
1.20825,-3.94142119661294
1.2105,-3.9142071671213
1.21275,-3.88742889961709
1.215,-3.86107648427756
1.21725,-3.83514028825546
1.2195,-3.80961094662497
1.22175,-3.78447935367123
1.224,-3.75973665450827
1.22625,-3.73537423701157
1.2285,-3.71138372405168
1.23075,-3.68775696601613
1.233,-3.66448603360747
1.23525,-3.64156321090597
1.2375,-3.61898098868565
1.23975,-3.59673205797332
1.242,-3.57480930384057
1.24425,-3.55320579941895
1.2465,-3.53191480012942
1.24875,-3.51092973811707
1.251,-3.49024421688312
1.25325,-3.46985200610587
1.2555,-3.44974703664324
1.25775,-3.42992339570968
1.26,-3.41037532222021
1.26225,-3.39109720229538
1.2645,-3.37208356492045
1.26675,-3.35332907775298
1.269,-3.33482854307288
1.27125,-3.31657689386951
1.2735,-3.29856919006044
1.27575,-3.28080061483679
1.278,-3.26326647113048
1.28025,-3.24596217819839
1.2825,-3.22888326831943
1.28475,-3.21202538359983
1.287,-3.19538427288295
1.28925,-3.17895578875938
1.2915,-3.16273588467386
1.29375,-3.14672061212521
1.296,-3.13090611795599
1.29825,-3.11528864172855
1.3005,-3.0998645131842
1.30275,-3.08463014978272
1.305,-3.06958205431898
1.30725,-3.05471681261416
1.3095,-3.04003109127877
1.31175,-3.02552163554491
1.314,-3.01118526716522
1.31625,-2.99701888237642
1.3185,-2.98301944992483
1.32075,-2.96918400915193
1.323,-2.9555096681378
1.32525,-2.9419936019003
1.3275,-2.92863305064831
1.32975,-2.91542531808693
1.332,-2.90236776977299
1.33425,-2.88945783151905
1.3365,-2.8766929878444
1.33875,-2.86407078047131
1.341,-2.85158880686503
1.34325,-2.83924471881619
1.3455,-2.82703622106405
1.34775,-2.81496106995931
1.35,-2.8030170721651
