"Freq [GHz]","dB(St11) []"
0.45,-0.125508210564059
0.45225,-0.128164985574461
0.4545,-0.130881255446448
0.45675,-0.133658537644499
0.459,-0.136498393697575
0.46125,-0.13940243063365
0.4635,-0.142372302465963
0.46575,-0.145409711732923
0.468,-0.148516411093887
0.47025,-0.151694204982917
0.4725,-0.154944951322865
0.47475,-0.158270563302114
0.477,-0.161673011216533
0.47925,-0.165154324379165
0.4815,-0.168716593100396
0.48375,-0.172361970741391
0.486,-0.17609267584374
0.48825,-0.179910994338381
0.4905,-0.183819281836946
0.49275,-0.187819966008903
0.495,-0.191915549047918
0.49725,-0.196108610231058
0.4995,-0.200401808574596
0.50175,-0.204797885590341
0.504,-0.209299668146576
0.50625,-0.213910071437872
0.5085,-0.218632102068222
0.51075,-0.223468861252128
0.513,-0.228423548138458
0.51525,-0.233499463262141
0.5175,-0.238700012128921
0.51975,-0.244028708938645
0.522,-0.249489180452825
0.52425,-0.255085170012386
0.5265,-0.260820541711818
0.52875,-0.26669928473621
0.531,-0.272725517867883
0.53325,-0.278903494169663
0.5355,-0.285237605852138
0.53775,-0.291732389332468
0.54,-0.298392530492779
0.54225,-0.305222870146378
0.5445,-0.312228409720457
0.54675,-0.319414317164249
0.549,-0.326785933092052
0.55125,-0.334348777170865
0.5535,-0.342108554762799
0.55575,-0.350071163832859
0.558,-0.358242702133147
0.56025,-0.366629474674919
0.5625,-0.375238001500483
0.56475,-0.384075025767352
0.567,-0.39314752215759
0.56925,-0.402462705625807
0.5715,-0.412028040499784
0.57375,-0.421851249948299
0.576,-0.431940325831246
0.57825,-0.442303538947771
0.5805,-0.452949449698741
0.58275,-0.463886919180487
0.585,-0.47512512072744
0.58725,-0.486673551921866
0.5895,-0.498542047089657
0.59175,-0.510740790301858
0.594,-0.523280328902185
0.59625,-0.536171587581688
0.5985,-0.549425883022373
0.60075,-0.56305493913233
0.603,-0.5770709028958
0.60525,-0.591486360862273
0.6075,-0.606314356299623
0.60975,-0.621568407037014
0.612,-0.637262524024189
0.61425,-0.653411230634562
0.6165,-0.670029582740348
0.61875,-0.687133189588843
0.621,-0.704738235509778
0.62325,-0.722861502484511
0.6255,-0.741520393608676
0.62775,-0.76073295748072
0.63,-0.780517913549579
0.63225,-0.800894678455549
0.6345,-0.821883393399257
0.63675,-0.84350495257432
0.639,-0.865781032700123
0.64125,-0.888734123691845
0.6435,-0.912387560505571
0.64575,-0.936765556197061
0.648,-0.961893236233302
0.65025,-0.987796674096732
0.6525,-1.0145029282225
0.65475,-1.0420400803098
0.657,-1.07043727504877
0.65925,-1.09972476130497
0.6615,-1.12993393480422
0.66375,-1.16109738236047
0.666,-1.19324892769063
0.66825,-1.22642367886022
0.6705,-1.26065807740441
0.67275,-1.29598994916982
0.675,-1.33245855692276
0.67725,-1.37010465477072
0.6795,-1.40897054444457
0.68175,-1.44910013349021
0.684,-1.4905389954198
0.68625,-1.53333443187433
0.6885,-1.5775355368512
0.69075,-1.62319326305347
0.693,-1.67036049041988
0.69525,-1.71909209689918
0.6975,-1.7694450315364
0.69975,-1.82147838994441
0.702,-1.8752534922408
0.70425,-1.93083396353783
0.7065,-1.98828581708279
0.70875,-2.0476775401571
0.711,-2.10908018285544
0.71325,-2.17256744988163
0.7155,-2.23821579551554
0.71775,-2.30610452192571
0.72,-2.37631588102621
0.72225,-2.44893518010297
0.7245,-2.52405089146559
0.72675,-2.60175476641547
0.729,-2.68214195386037
0.73125,-2.76531112394872
0.7335,-2.85136459714665
0.73575,-2.94040847923345
0.738,-3.0325528027508
0.74025,-3.12791167550443
0.7425,-3.22660343678602
0.74475,-3.3287508220555
0.747,-3.43448113690036
0.74925,-3.54392644116678
0.7515,-3.65722374423497
0.75375,-3.77451521248714
0.756,-3.89594839008465
0.75825,-4.02167643422853
0.7605,-4.15185836611579
0.76275,-4.2866593388155
0.765,-4.42625092325951
0.76725,-4.57081141345956
0.7695,-4.72052615190174
0.77175,-4.87558787580664
0.774,-5.03619708454037
0.77625,-5.20256242787369
0.7785,-5.37490111395015
0.78075,-5.55343933466001
0.783,-5.73841270451718
0.78525,-5.93006670696246
0.7875,-6.1286571390805
0.78975,-6.33445054177744
0.792,-6.54772459719259
0.79425,-6.76876846808117
0.7965,-6.9978830445281
0.79875,-7.23538105086959
0.801,-7.48158694908496
0.80325,-7.73683655280851
0.8055,-8.00147623667535
0.80775,-8.27586158651914
0.81,-8.56035528374377
0.81225,-8.85532394769862
0.8145,-9.161133567446
0.81675,-9.47814303155777
0.819,-9.80669510209116
0.82125,-10.1471039649104
0.8235,-10.4996382089803
0.82575,-10.8644977265566
0.828,-11.2417825695193
0.83025,-11.6314512357655
0.8325,-12.0332652022336
0.83475,-12.4467158149295
0.837,-12.8709290152828
0.83925,-13.3045430916073
0.8415,-13.7455552008818
0.84375,-14.1911346920725
0.846,-14.6374066720073
0.84825,-15.0792197109709
0.8505,-15.5099291491523
0.85275,-15.9212530230013
0.855,-16.3032880501267
0.85725,-16.6447969611753
0.8595,-16.9338728737496
0.86175,-17.1590218700436
0.864,-17.3105663656634
0.86625,-17.3820921404309
0.8685,-17.3715366696571
0.87075,-17.2815562440838
0.873,-17.119039598087
0.87525,-16.8939423534845
0.8775,-16.6178232556761
0.87975,-16.3024744926977
0.882,-15.9588977996764
0.88425,-15.5966996907032
0.8865,-15.2238507437019
0.88875,-14.8466994692252
0.891,-14.4701317644728
0.89325,-14.0977928922412
0.8955,-13.7323191021709
0.89775,-13.3755504708853
0.9,-13.028712969017
0.90225,-12.6925673572152
0.9045,-12.3675273637989
0.90675,-12.053751559888
0.909,-11.7512137379334
0.91125,-11.459756235631
0.9135,-11.1791299932728
0.91575,-10.9090244282817
0.918,-10.6490895656497
0.92025,-10.3989523169667
0.9225,-10.158228358808
0.92475,-9.92653071336484
0.927,-9.70347586518288
0.92925,-9.488688042251
0.9315,-9.28180213369081
0.93375,-9.08246559853185
0.936,-8.89033963140653
0.93825,-8.70509978436888
0.9405,-8.52643619399942
0.94275,-8.35405352537634
0.945,-8.18767071626182
0.94725,-8.02702058363466
0.9495,-7.87184933874777
0.95175,-7.72191604488755
0.954,-7.57699204298478
0.95625,-7.43686036343468
0.9585,-7.30131513737873
0.96075,-7.17016101686785
0.963,-7.04321261045314
0.96525,-6.92029393860511
0.9675,-6.80123791176472
0.96975,-6.68588583264898
0.972,-6.57408692356649
0.97425,-6.46569787886929
0.9765,-6.36058244221768
0.97875,-6.25861100801964
0.981,-6.15966024619331
0.98325,-6.06361274926368
0.9855,-5.97035670072288
0.98775,-5.87978556354479
0.99,-5.79179778773442
0.99225,-5.70629653580577
0.9945,-5.62318942510876
0.99675,-5.542388285965
0.999,-5.46380893461599
1.00125,-5.38737096003733
1.0035,-5.31299752372258
1.00575,-5.24061517159294
1.008,-5.17015365723904
1.01025,-5.10154577575156
1.0125,-5.03472720744526
1.01475,-4.9696363708265
1.017,-4.90621428419872
1.01925,-4.84440443534075
1.0215,-4.78415265873204
1.02375,-4.72540701983491
1.026,-4.66811770597828
1.02825,-4.6122369234185
1.0305,-4.5577188001829
1.03275,-4.50451929432873
1.035,-4.45259610727596
1.03725,-4.40190860189581
1.0395,-4.35241772505923
1.04175,-4.30408593436941
1.044,-4.25687712882158
1.04625,-4.21075658315116
1.0485,-4.16569088564664
1.05075,-4.12164787921978
1.053,-4.07859660553864
1.05525,-4.03650725204244
1.0575,-3.99535110166924
1.05975,-3.9551004851381
1.062,-3.91572873563837
1.06425,-3.87721014578759
1.0665,-3.83951992672918
1.06875,-3.80263416924857
1.071,-3.76652980679469
1.07325,-3.73118458030067
1.0755,-3.6965770047041
1.07775,-3.66268633707365
1.08,-3.62949254625449
1.08225,-3.59697628395015
1.0845,-3.56511885716381
1.08675,-3.53390220192634
1.089,-3.5033088582429
1.09125,-3.47332194619402
1.0935,-3.44392514313074
1.09575,-3.41510266190707
1.098,-3.38683923009615
1.10025,-3.35912007013982
1.1025,-3.33193088038409
1.10475,-3.30525781695553
1.107,-3.27908747643655
1.10925,-3.25340687929963
1.1115,-3.22820345406262
1.11375,-3.20346502212997
1.116,-3.17917978328583
1.11825,-3.15533630180766
1.1205,-3.13192349317003
1.12275,-3.10893061131036
1.125,-3.08634723642976
1.12725,-3.06416326330335
1.1295,-3.04236889007611
1.13175,-3.02095460752151
1.134,-2.99991118874109
1.13625,-2.97922967928467
1.1385,-2.95890138767166
1.14075,-2.93891787629524
1.143,-2.91927095269152
1.14525,-2.89995266115757
1.1475,-2.88095527470219
1.14975,-2.86227128731469
1.152,-2.84389340653731
1.15425,-2.82581454632791
1.1565,-2.8080278202
1.15875,-2.7905265346279
1.161,-2.77330418270557
1.16325,-2.75635443804786
1.1655,-2.73967114892378
1.16775,-2.72324833261183
1.17,-2.70708016996782
1.17225,-2.69116100019608
1.1745,-2.67548531581546
1.17675,-2.66004775781193
1.179,-2.64484311096989
1.18125,-2.62986629937463
1.1835,-2.61511238207907
1.18575,-2.60057654892765
1.188,-2.58625411653114
1.19025,-2.57214052438606
1.1925,-2.5582313311328
1.19475,-2.54452221094693
1.197,-2.53100895005807
1.19925,-2.51768744339143
1.2015,-2.50455369132696
1.20375,-2.49160379657151
1.206,-2.47883396113934
1.20825,-2.46624048343695
1.2105,-2.45381975544789
1.21275,-2.44156826001381
1.215,-2.42948256820784
1.21725,-2.41755933679689
1.2195,-2.40579530578922
1.22175,-2.39418729606427
1.224,-2.38273220708129
1.22625,-2.37142701466405
1.2285,-2.36026876885853
1.23075,-2.349254591861
1.233,-2.33838167601364
1.23525,-2.32764728186541
1.2375,-2.31704873629556
1.23975,-2.30658343069747
1.242,-2.29624881922073
1.24425,-2.28604241706912
1.2465,-2.27596179885257
1.24875,-2.26600459699113
1.251,-2.25616850016895
1.25325,-2.24645125183663
1.2555,-2.23685064876006
1.25775,-2.22736453961414
1.26,-2.21799082361972
1.26225,-2.20872744922241
1.2645,-2.19957241281148
1.26675,-2.1905237574777
1.269,-2.18157957180867
1.27125,-2.17273798872022
1.2735,-2.16399718432282
1.27575,-2.15535537682167
1.278,-2.14681082544928
1.28025,-2.13836182942958
1.2825,-2.13000672697225
1.28475,-2.12174389429649
1.287,-2.1135717446831
1.28925,-2.10548872755388
1.2915,-2.09749332757752
1.29375,-2.08958406380114
1.296,-2.08175948880641
1.29825,-2.07401818788972
1.3005,-2.0663587782654
1.30275,-2.05877990829136
1.305,-2.05128025671627
1.30725,-2.0438585319478
1.3095,-2.03651347134105
1.31175,-2.02924384050658
1.314,-2.02204843263747
1.31625,-2.01492606785474
1.3185,-2.00787559257054
1.32075,-2.0008958788686
1.323,-1.99398582390141
1.32525,-1.9871443493035
1.3275,-1.98037040062046
1.32975,-1.97366294675312
1.332,-1.96702097941642
1.33425,-1.96044351261267
1.3365,-1.95392958211846
1.33875,-1.94747824498519
1.341,-1.94108857905246
1.34325,-1.93475968247422
1.3455,-1.92849067325698
1.34775,-1.92228068881015
1.35,-1.91612888550769
