"Freq [GHz]","dB(St11) []"
0.45,-0.0993350919207401
0.45225,-0.101296635818945
0.4545,-0.103298206369291
0.45675,-0.105340714028748
0.459,-0.107425092611049
0.46125,-0.109552299953257
0.4635,-0.111723318603266
0.46575,-0.11393915652889
0.468,-0.116200847849342
0.47025,-0.118509453589787
0.4725,-0.120866062459832
0.47475,-0.123271791656702
0.477,-0.125727787693997
0.47925,-0.128235227256897
0.4815,-0.130795318084679
0.48375,-0.133409299881571
0.486,-0.136078445256831
0.48825,-0.138804060695119
0.4905,-0.141587487558182
0.49275,-0.144430103118962
0.495,-0.147333321629213
0.49725,-0.150298595421829
0.4995,-0.153327416049082
0.50175,-0.156421315458003
0.504,-0.159581867204226
0.50625,-0.162810687705634
0.5085,-0.166109437537196
0.51075,-0.169479822768437
0.513,-0.172923596345052
0.51525,-0.176442559516203
0.5175,-0.180038563309109
0.51975,-0.183713510052597
0.522,-0.187469354951355
0.52425,-0.191308107712631
0.5265,-0.195231834227322
0.52875,-0.199242658307248
0.531,-0.203342763480733
0.53325,-0.207534394848469
0.5355,-0.211819861001839
0.53775,-0.216201536005902
0.54,-0.220681861449335
0.54225,-0.225263348563739
0.5445,-0.229948580414712
0.54675,-0.234740214167312
0.549,-0.239640983428497
0.55125,-0.244653700669304
0.5535,-0.249781259729607
0.55575,-0.255026638408376
0.558,-0.260392901142465
0.56025,-0.265883201777131
0.5625,-0.271500786431436
0.56475,-0.277248996462034
0.567,-0.2831312715287
0.56925,-0.289151152765307
0.5715,-0.295312286059937
0.57375,-0.30161842544798
0.576,-0.308073436622253
0.57825,-0.314681300564203
0.5805,-0.321446117300542
0.58275,-0.328372109789627
0.585,-0.335463627942231
0.58725,-0.342725152781343
0.5895,-0.350161300745882
0.59175,-0.357776828143347
0.594,-0.365576635756567
0.59625,-0.373565773609884
0.5985,-0.381749445900314
0.60075,-0.390133016099297
0.603,-0.398722012230981
0.60525,-0.407522132332987
0.6075,-0.416539250105908
0.60975,-0.425779420757944
0.612,-0.435248887051204
0.61425,-0.444954085556502
0.6165,-0.454901653123544
0.61875,-0.465098433573701
0.621,-0.475551484622658
0.62325,-0.486268085040506
0.6255,-0.497255742056951
0.62775,-0.508522199019624
0.63,-0.520075443313498
0.63225,-0.531923714549797
0.6345,-0.544075513032803
0.63675,-0.556539608513283
0.639,-0.569325049237316
0.64125,-0.582441171299601
0.6435,-0.595897608310381
0.64575,-0.609704301385377
0.648,-0.623871509468201
0.65025,-0.638409819994931
0.6525,-0.653330159910618
0.65475,-0.668643807047662
0.657,-0.68436240187606
0.65925,-0.700497959635671
0.6615,-0.717062882860712
0.66375,-0.734069974306752
0.666,-0.751532450290523
0.66825,-0.769463954452943
0.6705,-0.787878571955642
0.67275,-0.806790844121409
0.675,-0.826215783528785
0.67725,-0.846168889571116
0.6795,-0.866666164490106
0.68175,-0.887724129893954
0.684,-0.909359843769879
0.68625,-0.931590918000693
0.6885,-0.954435536394879
0.69075,-0.977912473239272
0.693,-1.00204111238333
0.69525,-1.02684146686339
0.6975,-1.05233419907524
0.69975,-1.07854064150259
0.702,-1.10548281800898
0.70425,-1.13318346569977
0.7065,-1.1616660573607
0.70875,-1.19095482447878
0.711,-1.22107478085077
0.71325,-1.25205174678394
0.7155,-1.28391237389312
0.71775,-1.31668417049766
0.72,-1.35039552762101
0.72225,-1.3850757455953
0.7245,-1.42075506127261
0.72675,-1.45746467584412
0.729,-1.49523678326777
0.73125,-1.53410459930475
0.7335,-1.57410239116477
0.73575,-1.61526550775976
0.738,-1.6576304105656
0.74025,-1.70123470509159
0.7425,-1.7461171729576
0.74475,-1.79231780457913
0.747,-1.83987783246149
0.74925,-1.88883976510513
0.7515,-1.93924742152536
0.75375,-1.99114596639177
0.756,-2.04458194579415
0.75825,-2.09960332364476
0.7605,-2.15625951872927
0.76275,-2.21460144242278
0.765,-2.27468153709061
0.76725,-2.33655381519877
0.7695,-2.40027389916398
0.77175,-2.46589906197879
0.774,-2.53348826865377
0.77625,-2.60310221852597
0.7785,-2.67480338848981
0.78075,-2.748656077215
0.783,-2.82472645042397
0.78525,-2.90308258730997
0.7875,-2.98379452818539
0.78975,-3.06693432345785
0.792,-3.1525760840392
0.79425,-3.24079603329885
0.7965,-3.33167256067743
0.79875,-3.42528627707882
0.801,-3.52172007215753
0.80325,-3.62105917361232
0.8055,-3.72339120858526
0.80775,-3.82880626724605
0.81,-3.93739696861151
0.81225,-4.04925852860855
0.8145,-4.1644888303308
0.81675,-4.28318849636109
0.819,-4.40546096292964
0.82125,-4.53141255554401
0.8235,-4.66115256555497
0.82575,-4.7947933269028
0.828,-4.93245029201071
0.83025,-5.07424210544017
0.8325,-5.220290673483
0.83475,-5.37072122731236
0.837,-5.5256623766263
0.83925,-5.68524614985845
0.8415,-5.84960801596287
0.84375,-6.01888688145192
0.846,-6.19322505471857
0.84825,-6.37276816762797
0.8505,-6.55766504182603
0.85275,-6.74806748406342
0.855,-6.94412999092965
0.85725,-7.1460093385487
0.8595,-7.35386402678452
0.86175,-7.56785354006333
0.864,-7.78813737770286
0.86625,-8.01487379523427
0.8685,-8.24821818411052
0.87075,-8.48832099982296
0.873,-8.73532512709534
0.87525,-8.98936254469522
0.8775,-9.25055012061554
0.87975,-9.5189843300264
0.882,-9.79473464264049
0.88425,-10.0778352724057
0.8865,-10.3682749207477
0.88875,-10.6659840760936
0.891,-10.9708193602558
0.89325,-11.2825443429434
0.8955,-11.6008061909906
0.89775,-11.9251074988423
0.9,-12.2547726933459
0.90225,-12.5889085676334
0.9045,-12.9263588461238
0.90675,-13.2656533108062
0.909,-13.6049530464828
0.91125,-13.9419949169625
0.9135,-14.2740405641242
0.91575,-14.59783802341
0.918,-14.90960724468
0.92025,-15.2050637845395
0.9225,-15.4794965542167
0.92475,-15.7279140926989
0.927,-15.945267520261
0.92925,-16.1267459030362
0.9315,-16.2681219652968
0.93375,-16.3661067463416
0.936,-16.4186576918551
0.93825,-16.4251832163744
0.9405,-16.3866019943533
0.94275,-16.3052443469067
0.945,-16.1846166356463
0.94725,-16.0290758338924
0.9495,-15.8434723895683
0.95175,-15.6328142338585
0.954,-15.4019886129772
0.95625,-15.1555589267551
0.9585,-14.8976371002374
0.96075,-14.6318211740739
0.963,-14.3611828910333
0.96525,-14.0882895919354
0.9675,-13.8152468375993
0.96975,-13.5437512914537
0.972,-13.2751465326265
0.97425,-13.0104771231572
0.9765,-12.7505382685202
0.97875,-12.4959198196495
0.981,-12.2470442785589
0.98325,-12.0041990159886
0.9855,-11.7675632016203
0.98775,-11.5372300741599
0.99,-11.3132252043527
0.99225,-11.0955213727001
0.9945,-10.8840506237728
0.99675,-10.6787139881514
0.999,-10.4793892913841
1.00125,-10.2859374024222
1.0035,-10.0982072143096
1.00575,-9.9160395982616
1.008,-9.73927052849636
1.01025,-9.56773353861085
1.0125,-9.40126164006391
1.01475,-9.23968880851778
1.017,-9.08285112354743
1.01925,-8.93058763077125
1.0215,-8.78274098212058
1.02375,-8.63915789917551
1.026,-8.49968949577887
1.02825,-8.36419148910295
1.0305,-8.23252432266571
1.03275,-8.10455322021177
1.035,-7.9801481856768
1.03725,-7.85918396147076
1.0395,-7.74153995490639
1.04175,-7.6271001406553
1.044,-7.51575294554213
1.04625,-7.40739112071852
1.0485,-7.30191160523242
1.05075,-7.19921538417939
1.053,-7.09920734395293
1.05525,-7.0017961265695
1.0575,-6.90689398460706
1.05975,-6.8144166379438
1.062,-6.72428313319971
1.06425,-6.63641570655526
1.0665,-6.55073965043834
1.06875,-6.46718318442358
1.071,-6.38567733057168
1.07325,-6.30615579334292
1.0755,-6.22855484414596
1.07775,-6.15281321052546
1.08,-6.07887196994723
1.08225,-6.00667444810565
1.0845,-5.93616612165166
1.08675,-5.86729452522107
1.089,-5.80000916262876
1.09125,-5.73426142208542
1.0935,-5.67000449528711
1.09575,-5.60719330022542
1.098,-5.54578440756454
1.10025,-5.48573597043263
1.1025,-5.42700765747698
1.10475,-5.36956058903534
1.107,-5.3133572762798
1.10925,-5.25836156319402
1.1115,-5.20453857124922
1.11375,-5.15185464664952
1.116,-5.10027731002212
1.11825,-5.04977520843355
1.1205,-5.00031806961774
1.12275,-4.95187665830738
1.125,-4.90442273456479
1.12725,-4.85792901401366
1.1295,-4.81236912987754
1.13175,-4.767717596736
1.134,-4.72394977591328
1.13625,-4.6810418424192
1.1385,-4.63897075336542
1.14075,-4.59771421778495
1.143,-4.55725066778554
1.14525,-4.51755923097219
1.1475,-4.47861970407634
1.14975,-4.44041252773354
1.152,-4.40291876235355
1.15425,-4.36612006503035
1.1565,-4.32999866744202
1.15875,-4.2945373546929
1.161,-4.25971944505342
1.16325,-4.22552877055452
1.1655,-4.19194965839664
1.16775,-4.15896691313473
1.17,-4.12656579960298
1.17225,-4.09473202654471
1.1745,-4.06345173091471
1.17675,-4.03271146282306
1.179,-4.00249817109073
1.18125,-3.97279918938916
1.1835,-3.94360222293713
1.18575,-3.91489533572961
1.188,-3.88666693827478
1.19025,-3.85890577581623
1.1925,-3.83160091701877
1.19475,-3.80474174309723
1.197,-3.77831793736868
1.19925,-3.7523194752094
1.2015,-3.7267366143989
1.20375,-3.70155988583417
1.206,-3.67678008459799
1.20825,-3.65238826136618
1.2105,-3.62837571413914
1.21275,-3.60473398028378
1.215,-3.58145482887283
1.21725,-3.55853025330866
1.2195,-3.53595246421996
1.22175,-3.51371388261958
1.224,-3.49180713331271
1.22625,-3.47022503854516
1.2285,-3.44896061188148
1.23075,-3.42800705230394
1.233,-3.40735773852283
1.23525,-3.3870062234899
1.2375,-3.36694622910635
1.23975,-3.34717164111781
1.242,-3.32767650418866
1.24425,-3.30845501714839
1.2465,-3.28950152840348
1.24875,-3.2708105315079
1.251,-3.25237666088624
1.25325,-3.23419468770322
1.2555,-3.21625951587412
1.25775,-3.19856617821049
1.26,-3.18110983269583
1.26225,-3.16388575888649
1.2645,-3.14688935443268
1.26675,-3.13011613171518
1.269,-3.11356171459331
1.27125,-3.0972218352599
1.2735,-3.0810923311993
1.27575,-3.06516914224444
1.278,-3.04944830772936
1.28025,-3.03392596373359
1.2825,-3.01859834041497
1.28475,-3.00346175942763
1.287,-2.98851263142211
1.28925,-2.97374745362441
1.2915,-2.95916280749132
1.29375,-2.94475535643905
1.296,-2.93052184364271
1.29825,-2.91645908990391
1.3005,-2.90256399158415
1.30275,-2.88883351860162
1.305,-2.87526471248921
1.30725,-2.86185468451137
1.3095,-2.84860061383808
1.31175,-2.83549974577357
1.314,-2.82254939003815
1.31625,-2.80974691910116
1.3185,-2.79708976656328
1.32075,-2.78457542558661
1.323,-2.77220144737067
1.32525,-2.759965439673
1.3275,-2.74786506537262
1.32975,-2.73589804107509
1.332,-2.72406213575758
1.33425,-2.71235516945272
1.3365,-2.70077501197001
1.33875,-2.68931958165327
1.341,-2.67798684417327
1.34325,-2.66677481135411
1.3455,-2.65568154003238
1.34775,-2.64470513094802
1.35,-2.6338437276658
