"Freq [GHz]","dB(St11) []"
0.45,-0.161735810084514
0.45225,-0.165362365906695
0.4545,-0.169076686751109
0.45675,-0.172881219698228
0.459,-0.176778489903115
0.46125,-0.180771103397072
0.4635,-0.184861750000586
0.46575,-0.189053206352367
0.468,-0.193348339059495
0.47025,-0.197750107973918
0.4725,-0.202261569600811
0.47475,-0.206885880644496
0.477,-0.211626301697969
0.47925,-0.216486201082282
0.4815,-0.221469058842364
0.48375,-0.226578470906166
0.486,-0.231818153414284
0.48825,-0.237191947227623
0.4905,-0.242703822620946
0.49275,-0.248357884170538
0.495,-0.254158375844642
0.49725,-0.260109686305619
0.4995,-0.26621635443329
0.50175,-0.272483075079376
0.504,-0.278914705063255
0.50625,-0.285516269419917
0.5085,-0.292292967911404
0.51075,-0.299250181813524
0.513,-0.306393480990241
0.51525,-0.31372863126864
0.5175,-0.321261602128031
0.51975,-0.32899857471733
0.522,-0.336945950215505
0.52425,-0.34511035855058
0.5265,-0.353498667493375
0.52875,-0.362117992142896
0.531,-0.37097570482108
0.53325,-0.380079445395352
0.5355,-0.389437132048345
0.53775,-0.399056972514962
0.54,-0.408947475807852
0.54225,-0.419117464453369
0.5445,-0.429576087260983
0.54675,-0.44033283265018
0.549,-0.45139754255992
0.55125,-0.46278042696684
0.5535,-0.47449207903943
0.55575,-0.486543490956738
0.558,-0.498946070421217
0.56025,-0.511711657896676
0.5625,-0.524852544603563
0.56475,-0.538381491305137
0.567,-0.552311747919485
0.56925,-0.56665707399374
0.5715,-0.581431760078324
0.57375,-0.596650650040549
0.576,-0.612329164358414
0.57825,-0.62848332443707
0.5805,-0.645129777991965
0.58275,-0.66228582554439
0.585,-0.679969448076806
0.58725,-0.698199335896999
0.5895,-0.716994918761947
0.59175,-0.736376397313905
0.594,-0.756364775883173
0.59625,-0.776981896713613
0.5985,-0.798250475669002
0.60075,-0.820194139479968
0.603,-0.842837464593212
0.60525,-0.866206017686495
0.6075,-0.890326397914729
0.60975,-0.915226280954401
0.612,-0.940934464915282
0.61425,-0.967480918190336
0.6165,-0.994896829316493
0.61875,-1.02321465892078
0.621,-1.05246819382811
0.62325,-1.0826926034089
0.6255,-1.11392449824642
0.62775,-1.14620199120574
0.63,-1.17956476098786
0.63225,-1.21405411825473
0.6345,-1.24971307441275
0.63675,-1.2865864131445
0.639,-1.32472076478073
0.64125,-1.36416468360726
0.6435,-1.40496872820397
0.64575,-1.44718554491644
0.648,-1.49086995456425
0.65025,-1.53607904249404
0.6525,-1.58287225209031
0.65475,-1.63131148186269
0.657,-1.68146118623487
0.65925,-1.73338848016853
0.6615,-1.7871632477649
0.66375,-1.84285825499778
0.666,-1.90054926674501
0.66825,-1.96031516830115
0.6705,-2.02223809157269
0.67275,-2.08640354617854
0.675,-2.15290055570473
0.67725,-2.22182179939151
0.6795,-2.29326375956656
0.68175,-2.36732687517782
0.684,-2.44411570182673
0.68625,-2.52373907875603
0.6885,-2.60631030330798
0.69075,-2.69194731343841
0.693,-2.78077287895179
0.69525,-2.87291480221072
0.6975,-2.96850612917323
0.69975,-3.06768537172104
0.702,-3.17059674236283
0.70425,-3.27739040252827
0.7065,-3.38822272580914
0.70875,-3.50325657765352
0.711,-3.62266161317274
0.71325,-3.74661459487729
0.7155,-3.87529973230828
0.71775,-4.00890904566923
0.72,-4.14764275567637
0.72225,-4.29170970191639
0.7245,-4.44132779200988
0.72675,-4.59672448379175
0.729,-4.75813730249969
0.73125,-4.9258143945495
0.7335,-5.10001511879958
0.73575,-5.2810106751625
0.738,-5.46908476887543
0.74025,-5.66453430650765
0.7425,-5.86767011661381
0.74475,-6.07881768349922
0.747,-6.29831787638867
0.74925,-6.5265276477609
0.7515,-6.76382066287433
0.75375,-7.01058780640366
0.756,-7.26723749003732
0.75825,-7.53419565466468
0.7605,-7.8119053194062
0.76275,-8.10082547307957
0.765,-8.40142902607905
0.76725,-8.71419943430951
0.7695,-9.03962546116164
0.77175,-9.37819334421562
0.774,-9.73037536127229
0.77625,-10.0966134204195
0.7785,-10.4772957995427
0.78075,-10.8727244944321
0.783,-11.2830697617877
0.78525,-11.7083073333702
0.7875,-12.1481324344734
0.78975,-12.6018432567368
0.792,-13.0681851979684
0.79425,-13.5451466554376
0.7965,-14.0296987898696
0.79875,-14.5174779013837
0.801,-15.0024237657535
0.80325,-15.4764155860377
0.8055,-15.9289933689463
0.80775,-16.3473138971087
0.81,-16.7165463469717
0.81225,-17.020913009879
0.8145,-17.2454540701494
0.81675,-17.3783040420411
0.819,-17.4129008831711
0.82125,-17.3493537402575
0.8235,-17.1944090967907
0.82575,-16.9600299320197
0.828,-16.6611674019154
0.83025,-16.3134979877723
0.8325,-15.9316899731298
0.83475,-15.5283955149389
0.837,-15.1138800308869
0.83925,-14.6960812615754
0.8415,-14.2808947790795
0.84375,-13.8725396780315
0.846,-13.4739191206
0.84825,-13.0869357253097
0.8505,-12.7127493685081
0.85275,-12.3519791860706
0.855,-12.0048575070482
0.85725,-11.6713449416309
0.8595,-11.3512152605933
0.86175,-11.0441173491062
0.864,-10.749620037041
0.86625,-10.4672442745565
0.8685,-10.1964860229816
0.87075,-9.93683236851078
0.873,-9.68777270859453
0.87525,-9.44880636840962
0.8775,-9.21944764011781
0.87975,-8.99922896944803
0.882,-8.78770281774272
0.88425,-8.58444258409005
0.8865,-8.38904286738342
0.88875,-8.20111927165828
0.891,-8.02030790219933
0.89325,-7.84626465909594
0.8955,-7.67866440508698
0.89775,-7.51720006271411
0.9,-7.36158167984415
0.90225,-7.21153549095637
0.9045,-7.0668029930757
0.90675,-6.92714004902989
0.909,-6.79231602620822
0.91125,-6.6621129757475
0.9135,-6.53632485474225
0.91575,-6.41475679242215
0.918,-6.29722440008533
0.92025,-6.18355312378502
0.9225,-6.07357763824397
0.92475,-5.96714128014059
0.927,-5.86409551872226
0.92925,-5.76429946161107
0.9315,-5.66761939365068
0.93375,-5.57392834667305
0.936,-5.48310569812933
0.93825,-5.39503679661498
0.9405,-5.3096126124191
0.94275,-5.22672941133416
0.945,-5.14628845007109
0.94725,-5.06819569173381
0.9495,-4.99236153991265
0.95175,-4.9187005900582
0.954,-4.84713139689423
0.95625,-4.77757625671956
0.9585,-4.70996100353497
0.96075,-4.64421481801129
0.963,-4.58027004838948
0.96525,-4.51806204247262
0.9675,-4.45752898993395
0.96975,-4.39861177422399
0.972,-4.34125383341461
0.97425,-4.28540102936793
0.9765,-4.23100152466435
0.97875,-4.17800566676665
0.981,-4.12636587893611
0.98325,-4.07603655745287
0.9855,-4.02697397472565
0.98775,-3.97913618790677
0.99,-3.93248295265613
0.99225,-3.88697564172387
0.9945,-3.84257716804514
0.99675,-3.79925191206229
0.999,-3.75696565300997
1.00125,-3.71568550391729
1.0035,-3.67537985009818
1.00575,-3.63601829091716
1.008,-3.59757158463218
1.01025,-3.5600115961297
1.0125,-3.52331124737967
1.01475,-3.48744447044979
1.017,-3.45238616292882
1.01925,-3.41811214561873
1.0215,-3.38459912236486
1.02375,-3.35182464190134
1.026,-3.31976706159732
1.02825,-3.28840551299658
1.0305,-3.25771986905004
1.03275,-3.22769071294711
1.035,-3.19829930845729
1.03725,-3.16952757169947
1.0395,-3.14135804426106
1.04175,-3.1137738675938
1.044,-3.08675875861803
1.04625,-3.06029698647056
1.0485,-3.0343733503358
1.05075,-3.00897315830301
1.053,-2.98408220719612
1.05525,-2.9596867633254
1.0575,-2.9357735441136
1.05975,-2.9123297005516
1.062,-2.8893428004413
1.06425,-2.8668008123859
1.0665,-2.84469209048993
1.06875,-2.82300535973353
1.071,-2.80172970198749
1.07325,-2.78085454263727
1.0755,-2.76036963778622
1.07775,-2.74026506200961
1.08,-2.72053119663278
1.08225,-2.70115871850805
1.0845,-2.6821385892665
1.08675,-2.66346204502199
1.089,-2.64512058650584
1.09125,-2.62710596961193
1.0935,-2.60941019633299
1.09575,-2.59202550606978
1.098,-2.57494436729579
1.10025,-2.5581594695612
1.1025,-2.54166371582037
1.10475,-2.52545021506823
1.107,-2.50951227527137
1.10925,-2.4938433965807
1.1115,-2.4784372648129
1.11375,-2.46328774518862
1.116,-2.44838887631619
1.11825,-2.43373486440971
1.1205,-2.4193200777315
1.12275,-2.40513904124876
1.125,-2.39118643149539
1.12725,-2.37745707162996
1.1295,-2.36394592668123
1.13175,-2.3506480989735
1.134,-2.33755882372376
1.13625,-2.32467346480353
1.1385,-2.3119875106584
1.14075,-2.29949657037863
1.143,-2.28719636991439
1.14525,-2.27508274842978
1.1475,-2.26315165478972
1.14975,-2.25139914417431
1.152,-2.23982137481537
1.15425,-2.22841460485022
1.1565,-2.21717518928789
1.15875,-2.20609957708319
1.161,-2.19518430831434
1.16325,-2.18442601145996
1.1655,-2.17382140077149
1.16775,-2.1633672737372
1.17,-2.15306050863421
1.17225,-2.14289806216502
1.1745,-2.13287696717522
1.17675,-2.12299433044936
1.179,-2.11324733058162
1.18125,-2.10363321591882
1.1835,-2.09414930257259
1.18575,-2.08479297249827
1.188,-2.07556167163797
1.19025,-2.0664529081253
1.1925,-2.05746425054945
1.19475,-2.0485933262764
1.197,-2.03983781982521
1.19925,-2.03119547129709
1.2015,-2.0226640748556
1.20375,-2.01424147725583
1.206,-2.00592557642094
1.20825,-1.99771432006426
1.2105,-1.98960570435519
1.21275,-1.98159777262751
1.215,-1.97368861412842
1.21725,-1.96587636280691
1.2195,-1.95815919614
1.22175,-1.95053533399555
1.224,-1.94300303753036
1.22625,-1.9355606081222
1.2285,-1.92820638633477
1.23075,-1.92093875091426
1.233,-1.91375611781644
1.23525,-1.9066569392634
1.2375,-1.89963970282859
1.23975,-1.89270293054957
1.242,-1.88584517806717
1.24425,-1.87906503379044
1.2465,-1.87236111808632
1.24875,-1.86573208249331
1.251,-1.85917660895832
1.25325,-1.85269340909587
1.2555,-1.84628122346897
1.25775,-1.8399388208909
1.26,-1.83366499774727
1.26225,-1.82745857733762
1.2645,-1.82131840923599
1.26675,-1.81524336866981
1.269,-1.80923235591652
1.27125,-1.80328429571737
1.2735,-1.79739813670779
1.27575,-1.79157285086397
1.278,-1.78580743296487
1.28025,-1.78010090006941
1.2825,-1.77445229100827
1.28475,-1.76886066588985
1.287,-1.76332510561991
1.28925,-1.75784471143458
1.2915,-1.75241860444621
1.29375,-1.7470459252017
1.296,-1.74172583325305
1.29825,-1.73645750673951
1.3005,-1.73124014198126
1.30275,-1.72607295308407
1.305,-1.72095517155469
1.30725,-1.71588604592669
1.3095,-1.71086484139636
1.31175,-1.70589083946845
1.314,-1.70096333761137
1.31625,-1.69608164892167
1.3185,-1.69124510179755
1.32075,-1.68645303962094
1.323,-1.68170482044821
1.32525,-1.67699981670898
1.3275,-1.672337414913
1.32975,-1.66771701536474
1.332,-1.66313803188558
1.33425,-1.65859989154332
1.3365,-1.65410203438877
1.33875,-1.6496439131994
1.341,-1.64522499322958
1.34325,-1.64084475196752
1.3455,-1.63650267889852
1.34775,-1.63219827527442
1.35,-1.62793105388915
