"Freq [GHz]","dB(St(Driver_T1,Driver_T1)) []"
1,-1.5839995391679
1.005,-1.45551201559145
1.01,-1.34339685702962
1.015,-1.24560364035435
1.02,-1.1603148683862
1.025,-1.08593649536713
1.03,-1.02108252809627
1.035,-0.96455648411586
1.04,-0.915331623538639
1.045,-0.872531210535966
1.05,-0.835409576735877
1.055,-0.803334418894756
1.06,-0.775770535158449
1.065,-0.752265059952653
1.07,-0.732434173941564
1.075,-0.715951224292251
1.08,-0.702536177510284
1.085,-0.691946331470374
1.09,-0.683968226566563
1.095,-0.678410711694239
1.1,-0.675099134171237
1.105,-0.673870630240705
1.11,-0.674570492384607
1.115,-0.67704958063542
1.12,-0.68116272812879
1.125,-0.686768068306596
1.13,-0.693727185495337
1.135,-0.701905965678704
1.14,-0.71117600383323
1.145,-0.721416411362959
1.15,-0.732515864103104
1.155,-0.744374738895823
1.16,-0.756907204309979
1.165,-0.770043156894514
1.17,-0.783729925769746
1.175,-0.797933702339004
1.18,-0.812640685497176
1.185,-0.827857963476878
1.19,-0.843614179714617
1.195,-0.859960051012054
1.2,-0.876968821811053
1.205,-0.894736749284133
1.21,-0.913383721340043
1.215,-0.933054115019475
1.22,-0.953918007650575
1.225,-0.976172859020769
1.23,-1.00004579094064
1.235,-1.02579660180021
1.24,-1.05372166830866
1.245,-1.08415890384934
1.25,-1.11749396035157
1.255,-1.15416787286091
1.26,-1.1946863422736
1.265,-1.23963081154104
1.27,-1.28967137638011
1.275,-1.34558131496382
1.28,-1.40825250051199
1.285,-1.47870996193549
1.29,-1.55812201034602
1.295,-1.64779902979428
1.3,-1.74916823469578
1.305,-1.86370193250135
1.31,-1.99276124281383
1.315,-2.13729457342383
1.32,-2.29730322076097
1.325,-2.47097101286386
1.33,-2.6533978523371
1.335,-2.83507813190832
1.34,-3.00075479391381
1.345,-3.13002070786055
1.35,-3.20135982292621
1.355,-3.19979670104277
1.36,-3.12461879362399
1.365,-2.99135043199078
1.37,-2.82577672322379
1.375,-2.65438882444559
1.38,-2.49739085335983
1.385,-2.36660074107342
1.39,-2.26678774089224
1.395,-2.19813817992438
1.4,-2.15843930365385
1.405,-2.14455022466487
1.41,-2.15323142356214
1.415,-2.18153950145876
1.42,-2.22697028612689
1.425,-2.28747325340847
1.43,-2.36140892103251
1.435,-2.44748701557367
1.44,-2.54470352537785
1.445,-2.6522842165662
1.45,-2.76963694125327
1.455,-2.89631266621542
1.46,-3.03197419818036
1.465,-3.17637132438761
1.47,-3.32932113534642
1.475,-3.4906924591214
1.48,-3.66039352365761
1.485,-3.83836213761638
1.49,-4.02455782767726
1.495,-4.21895548928181
1.5,-4.42154020096492
1.505,-4.63230292380749
1.51,-4.85123686127996
1.515,-5.07833429445755
1.52,-5.31358373627369
1.525,-5.55696726850442
1.53,-5.80845793839431
1.535,-6.06801709966204
1.54,-6.33559158617104
1.545,-6.61111060671001
1.55,-6.89448224687499
1.555,-7.18558945973646
1.56,-7.4842854216579
1.565,-7.79038812436936
1.57,-8.10367407062038
1.575,-8.42387094042101
1.58,-8.75064910078649
1.585,-9.0836118478164
1.59,-9.4222843009649
1.595,-9.76610092215902
1.6,-10.1143917153847
1.605,-10.4663672854994
1.61,-10.8211031094283
1.615,-11.1775236093344
1.62,-11.5343869236804
1.625,-11.8902716489548
1.63,-12.2435672591968
1.635,-12.5924703673753
1.64,-12.9349894060341
1.645,-13.2689605700245
1.65,-13.5920778387872
1.655,-13.9019394124297
1.66,-14.1961117989316
1.665,-14.4722109945698
1.67,-14.7279977689311
1.675,-14.9614812776838
1.68,-15.1710225925866
1.685,-15.3554279330283
1.69,-15.5140210653677
1.695,-15.6466859056087
1.7,-15.7538737473633
1.705,-15.8365741357006
1.71,-15.8962532249885
1.715,-15.9347674294634
1.72,-15.9542625096338
1.725,-15.9570686482974
1.73,-15.9456007886868
1.735,-15.9222711194779
1.74,-15.8894177915014
1.745,-15.8492513303904
1.75,-15.8038181415803
1.755,-15.7549791314704
1.76,-15.7044007560051
1.765,-15.6535556196102
1.77,-15.6037299150597
1.775,-15.5560353631878
1.78,-15.511423760019
1.785,-15.4707026870773
1.79,-15.4345513419871
1.795,-15.4035357803098
1.8,-15.3781231219171
1.805,-15.3586944716861
1.81,-15.3455564449075
1.815,-15.3389512837174
1.82,-15.3390656126118
1.825,-15.3460379177636
1.83,-15.359964853735
1.835,-15.380906487956
1.84,-15.4088905922502
1.845,-15.4439160848029
1.85,-15.4859557174705
1.855,-15.5349580936949
1.86,-15.590849092544
1.865,-15.6535327651746
1.87,-15.7228917617545
1.875,-15.7987873398231
1.88,-15.8810589993886
1.885,-15.9695237858449
1.89,-16.063975299106
1.895,-16.164182446235
1.9,-16.2698879753044
1.905,-16.380806830262
1.91,-16.4966243701474
1.915,-16.6169945010144
1.92,-16.7415377751941
1.925,-16.8698395197991
1.93,-17.0014480641978
1.935,-17.1358731439684
1.94,-17.2725845657762
1.945,-17.4110112226336
1.95,-17.5505405508556
1.955,-17.6905185172284
1.96,-17.8302502159187
1.965,-17.9690011379322
1.97,-18.1059991502503
1.975,-18.2404371864405
1.98,-18.3714766057763
1.985,-18.4982511252473
1.99,-18.6198711714127
1.995,-18.735428441856
2,-18.8440004158636
2.005,-18.9446545193024
2.01,-19.0364516388509
2.015,-19.1184487049923
2.02,-19.1897001293132
2.025,-19.2492579944863
2.03,-19.296171055052
2.035,-19.3294828080017
2.04,-19.3482291213206
2.045,-19.3514361456246
2.05,-19.3381194508859
2.055,-19.3072854926737
2.06,-19.2579365819039
2.065,-19.1890804702336
2.07,-19.0997454372494
2.075,-18.9890013568831
2.08,-18.8559866342175
2.085,-18.6999401781511
2.09,-18.5202367868168
2.095,-18.3164235835105
2.1,-18.0882545854394
2.105,-17.835720246259
2.11,-17.5590689794853
2.115,-17.2588182683521
2.12,-16.9357539370644
2.125,-16.5909173557008
2.13,-16.2255815811628
2.135,-15.841218498411
2.14,-15.4394597604874
2.145,-15.0220546490343
2.15,-14.5908278919275
2.155,-14.1476400566281
2.16,-13.6943525056175
2.165,-13.2327981822754
2.17,-12.7647588026195
2.175,-12.2919484378115
2.18,-11.8160030243335
2.185,-11.3384750411143
2.19,-10.8608324308995
2.195,-10.3844607898194
2.2,-9.91066787376033
2.205,-9.44068954439937
2.21,-8.97569637867341
2.215,-8.51680027662406
2.22,-8.06506051383303
2.225,-7.62148879109151
2.23,-7.18705293442103
2.235,-6.76267899446354
2.24,-6.34925158816203
2.245,-5.94761242023375
2.25,-5.55855701900998
2.255,-5.18282982099715
2.26,-4.8211178390916
2.265,-4.47404324654518
2.27,-4.1421552961701
2.275,-3.82592206402794
2.28,-3.52572255062698
2.285,-3.24183968301491
2.29,-2.97445473303316
2.295,-2.72364359903047
2.3,-2.48937529368108
2.305,-2.27151284702315
2.31,-2.06981668314498
2.315,-1.88395037522538
2.32,-1.71348854143083
2.325,-1.5579265263683
2.33,-1.41669142885345
2.335,-1.28915399162527
2.34,-1.17464086248253
2.345,-1.07244676503956
2.35,-0.981846173665328
2.355,-0.902104162222489
2.36,-0.832486180694418
2.365,-0.77226659927123
2.37,-0.72073593920238
2.375,-0.677206778984492
2.38,-0.64101838055271
2.385,-0.611540122193941
2.39,-0.588173853414766
2.395,-0.570355303446034
2.4,-0.557554681461381
2.405,-0.549276605133889
2.41,-0.545059486999846
2.415,-0.544474497164005
2.42,-0.547124207777587
2.425,-0.552641010721876
2.43,-0.560685385982418
2.435,-0.570944084958893
2.44,-0.583128280841047
2.445,-0.596971727416997
2.45,-0.612228958354807
2.455,-0.628673551093965
2.46,-0.646096472922333
2.465,-0.664304521474227
2.47,-0.683118867627753
2.475,-0.702373705458994
2.48,-0.721915011383334
2.485,-0.741599412750489
2.49,-0.761293164835347
2.495,-0.780871234277541
2.5,-0.800216486474242
2.505,-0.819218974141131
2.51,-0.837775324158261
2.515,-0.855788219849007
2.52,-0.873165975951217
2.525,-0.889822203684472
2.53,-0.905675563458491
2.535,-0.920649602867719
2.54,-0.934672677648979
2.545,-0.947677953210967
2.55,-0.959603484153628
2.555,-0.970392368860822
2.56,-0.979992975748768
2.565,-0.988359237075372
2.57,-0.995451005349286
2.575,-1.00123446631857
2.58,-1.00568260127461
2.585,-1.00877568998682
2.59,-1.01050184401668
2.595,-1.01085755848002
2.6,-1.00984826858748
2.605,-1.00748889555982
2.61,-1.0038043648684
2.615,-0.99883007828595
2.62,-0.992612320055735
2.625,-0.985208576711978
2.63,-0.976687749829587
2.635,-0.967130241360433
2.64,-0.95662789232976
2.645,-0.945283757603721
2.65,-0.933211702247619
2.655,-0.920535808690562
2.66,-0.907389588460668
2.665,-0.89391499756606
2.67,-0.880261260528038
2.675,-0.866583514420334
2.68,-0.853041290776751
2.685,-0.839796859610585
2.69,-0.827013465714772
2.695,-0.814853492563408
2.7,-0.80347659319811
2.705,-0.793037830190546
2.71,-0.783685867915835
2.715,-0.775561259828145
2.72,-0.768794871168407
2.725,-0.763506473628794
2.73,-0.75980354312497
2.735,-0.75778028524441
2.74,-0.757516905488024
2.745,-0.759079133481059
2.75,-0.762518002303271
2.755,-0.767869876366106
2.76,-0.77515671420518
2.765,-0.784386546450636
2.77,-0.795554144308993
2.775,-0.808641850270076
2.78,-0.823620540489866
2.785,-0.840450687363353
2.79,-0.859083491088536
2.795,-0.879462050376784
2.8,-0.901522544696916
2.805,-0.925195403335561
2.81,-0.950406439902095
2.815,-0.977077934498035
2.82,-1.00512964942431
2.825,-1.03447976786125
2.83,-1.06504574829913
2.835,-1.09674509053499
2.84,-1.12949601171904
2.845,-1.16321803320467
2.85,-1.19783248081763
2.855,-1.23326290262736
2.86,-1.26943540939822
2.865,-1.30627894366109
2.87,-1.34372548381145
2.875,-1.38171018985955
2.88,-1.42017149746925
2.885,-1.45905116677103
2.89,-1.49829429215681
2.895,-1.53784927889651
2.9,-1.57766779198617
2.905,-1.61770468217073
2.91,-1.65791789360244
2.915,-1.6982683571135
2.92,-1.73871987261019
2.925,-1.77923898364901
2.93,-1.81979484683392
2.935,-1.86035909828492
2.94,-1.90090571907485
2.945,-1.94141090121154
2.95,-1.98185291545791
2.955,-2.02221198203003
2.96,-2.0624701449951
2.965,-2.1026111509988
2.97,-2.142620332788
2.975,-2.18248449785615
2.98,-2.22219182242051
2.985,-2.26173175084161
2.99,-2.30109490051577
2.995,-2.34027297220496
3,-2.37925866571448
