"Freq [GHz]","dB(St(Driver_T1,Driver_T1)) []"
1,-1.84662147119858
1.005,-1.69532040992234
1.01,-1.56386564884482
1.015,-1.44905152930189
1.02,-1.34826101666279
1.025,-1.25936673444558
1.03,-1.18064458428031
1.035,-1.11070026966337
1.04,-1.04840775466795
1.045,-0.992858164394621
1.05,-0.943317524413444
1.055,-0.899191836230451
1.06,-0.859998177715415
1.065,-0.825340737297333
1.07,-0.794890905170587
1.075,-0.768370737541877
1.08,-0.745539274079134
1.085,-0.726181321927467
1.09,-0.710098422059685
1.095,-0.697101786781051
1.1,-0.687007043308677
1.105,-0.679630640792164
1.11,-0.674787781151566
1.115,-0.672291722756452
1.12,-0.671954285954046
1.125,-0.673587366681738
1.13,-0.677005244438373
1.135,-0.682027458393786
1.14,-0.688482023631392
1.145,-0.696208769973873
1.15,-0.705062608295666
1.155,-0.714916561871092
1.16,-0.725664440188763
1.165,-0.737223076218724
1.17,-0.749534091741994
1.175,-0.762565195875729
1.18,-0.77631105696923
1.185,-0.790793816181421
1.19,-0.806063331821211
1.195,-0.822197257327273
1.2,-0.839301063621349
1.205,-0.85750811994157
1.21,-0.876979947796377
1.215,-0.897906762018341
1.22,-0.920508412532194
1.225,-0.94503584159452
1.23,-0.971773174733546
1.235,-1.00104056968585
1.24,-1.03319795575769
1.245,-1.06864980441981
1.25,-1.10785107663994
1.255,-1.15131448587286
1.26,-1.19961918382684
1.265,-1.25342089412124
1.27,-1.31346334260912
1.275,-1.3805904853476
1.28,-1.45575838268389
1.285,-1.54004438343364
1.29,-1.63464918671448
1.295,-1.74088372520973
1.3,-1.86012671911869
1.305,-1.99372888647796
1.31,-2.14282479378638
1.315,-2.30799301071833
1.32,-2.48868435288087
1.325,-2.68233515120924
1.33,-2.88314609172372
1.335,-3.08072923321896
1.34,-3.25930380497185
1.345,-3.39875459461143
1.35,-3.47896648195436
1.355,-3.48720308051067
1.36,-3.42495702930298
1.365,-3.30909346921472
1.37,-3.16575603973122
1.375,-3.02127798956036
1.38,-2.89563907084256
1.385,-2.80051710488995
1.39,-2.74058685143715
1.395,-2.71592387430782
1.4,-2.72416579803522
1.405,-2.76199179963211
1.41,-2.82597006232203
1.415,-2.91296708425973
1.42,-3.02029838830083
1.425,-3.14574455996914
1.43,-3.28750639181342
1.435,-3.44413877258939
1.44,-3.61448264659079
1.445,-3.79760328839465
1.45,-3.99273751953065
1.455,-4.19924987121837
1.46,-4.41659662540057
1.465,-4.64429635040357
1.47,-4.88190557201311
1.475,-5.12899837801792
1.48,-5.38514894670333
1.485,-5.64991617588499
1.49,-5.92282975510988
1.495,-6.20337716904109
1.5,-6.49099125014249
1.505,-6.78503802139325
1.51,-7.08480469350958
1.515,-7.38948781459747
1.52,-7.6981817211486
1.525,-8.00986761406245
1.53,-8.32340378522442
1.535,-8.63751774743587
1.54,-8.95080126388269
1.545,-9.26170951269004
1.55,-9.5685658233335
1.555,-9.86957353483704
1.56,-10.1628364863381
1.565,-10.4463893864959
1.57,-10.7182387536529
1.575,-10.9764142369955
1.58,-11.2190289406434
1.585,-11.4443459810121
1.59,-11.6508471106087
1.595,-11.8372981137762
1.6,-12.0028051214238
1.605,-12.1468562434234
1.61,-12.2693440718401
1.615,-12.3705665504304
1.62,-12.4512061159745
1.625,-12.5122894453962
1.63,-12.5551321344673
1.635,-12.581273855653
1.64,-12.5924098623131
1.645,-12.5903242021212
1.65,-12.5768289066657
1.655,-12.5537120350417
1.66,-12.5226960461665
1.665,-12.4854067621991
1.67,-12.443352274288
1.675,-12.3979105578529
1.68,-12.3503242743164
1.685,-12.3017011751142
1.69,-12.2530186192919
1.695,-12.2051309023468
1.7,-12.1587783195898
1.705,-12.1145971162768
1.71,-12.0731296871624
1.715,-12.0348345688387
1.72,-12.0000959156612
1.725,-11.9692322653015
1.73,-11.9425044866193
1.735,-11.9201228652412
1.74,-11.9022533257314
1.745,-11.8890228179161
1.75,-11.8805239125182
1.755,-11.8768186608461
1.76,-11.8779417772921
1.765,-11.8839032036879
1.77,-11.894690112558
1.775,-11.9102684030298
1.78,-11.9305837393717
1.785,-11.9555621783792
1.79,-11.985110428511
1.795,-12.0191157810777
1.8,-12.0574457521228
1.805,-12.0999474730559
1.81,-12.1464468687332
1.815,-12.1967476636118
1.82,-12.2506302598863
1.825,-12.3078505361713
1.83,-12.3681386212747
1.835,-12.4311977048196
1.84,-12.4967029546985
1.845,-12.5643006202601
1.85,-12.6336074092457
1.855,-12.7042102351347
1.86,-12.7756664388325
1.865,-12.8475045934534
1.87,-12.9192260019796
1.875,-12.9903069933778
1.88,-13.0602021117878
1.885,-13.1283482742364
1.89,-13.1941699438371
1.895,-13.2570853270131
1.9,-13.3165135551717
1.905,-13.3718827547677
1.91,-13.4226388474465
1.915,-13.4682548579188
1.92,-13.5082404465709
1.925,-13.5421513326366
1.93,-13.5695982383199
1.935,-13.5902549703171
1.94,-13.6038652669636
1.945,-13.6102480786575
1.95,-13.6093010152643
1.955,-13.6010017827419
1.96,-13.5854075352798
1.965,-13.5626521798087
1.97,-13.5329417769404
1.975,-13.496548276817
1.98,-13.4538019022743
1.985,-13.4050825400454
1.99,-13.3508105214582
1.995,-13.2914371682244
2,-13.22743545009
2.005,-13.1214320694172
2.01,-13.0221444054731
2.015,-12.9287256499734
2.02,-12.8403368130659
2.025,-12.7561623243736
2.03,-12.6754216330872
2.035,-12.5973771164698
2.04,-12.5213387524052
2.045,-12.4466660821643
2.05,-12.3727680014963
2.055,-12.2991008892153
2.06,-12.2251655285208
2.065,-12.1505032101445
2.07,-12.0746913374358
2.075,-11.9973387879512
2.08,-11.9180812276966
2.085,-11.8365765246504
2.09,-11.7525003680029
2.095,-11.6655421682649
2.1,-11.5754012901314
2.105,-11.4817836536212
2.11,-11.3843987284008
2.115,-11.2829569402227
2.12,-11.1771675060688
2.125,-11.0667367149874
2.13,-10.9513666739673
2.135,-10.8307545418121
2.14,-10.7045922782375
2.145,-10.5725669397444
2.15,-10.4343615576898
2.155,-10.2896566368597
2.16,-10.1381323142715
2.165,-9.97947121741571
2.17,-9.81336205828934
2.175,-9.63950399400387
2.18,-9.45761177621916
2.185,-9.26742170000981
2.19,-9.06869834800036
2.195,-8.86124210783863
2.2,-8.64489742055633
2.205,-8.41956169440364
2.21,-8.18519479363285
2.215,-7.94182898459407
2.22,-7.6895791922672
2.225,-7.42865338843176
2.23,-7.15936289699535
2.235,-6.8821323609432
2.24,-6.59750906692363
2.245,-6.30617126559842
2.25,-6.00893505713291
2.255,-5.70675933173939
2.26,-5.40074816806557
2.265,-5.09215000487331
2.27,-4.78235282716945
2.275,-4.47287456689048
2.28,-4.16534793733532
2.285,-3.86149903151503
2.29,-3.56311924930991
2.295,-3.27203050106032
2.3,-2.99004417222853
2.305,-2.71891500208948
2.31,-2.46029176821171
2.315,-2.21566737769424
2.32,-1.98633151654837
2.325,-1.77332926546265
2.33,-1.57742894675174
2.335,-1.39910188002848
2.34,-1.2385157367173
2.345,-1.09554192846091
2.35,-0.969776138041582
2.355,-0.860569917788996
2.36,-0.767070419637737
2.365,-0.688264888404072
2.37,-0.623026559378083
2.375,-0.570158985031008
2.38,-0.528436452661745
2.385,-0.496638907325904
2.39,-0.473580538854727
2.395,-0.458131838360301
2.4,-0.449235428536499
2.405,-0.445916309466155
2.41,-0.447287349904873
2.415,-0.452550920567743
2.42,-0.460997543693772
2.425,-0.472002353706031
2.43,-0.485020053624983
2.435,-0.499578930996065
2.44,-0.515274379034497
2.445,-0.531762261635192
2.45,-0.548752368886182
2.455,-0.566002133937598
2.46,-0.583310721885252
2.465,-0.600513555097586
2.47,-0.617477305078315
2.475,-0.634095356372628
2.48,-0.650283731187147
2.485,-0.665977452543171
2.49,-0.681127317439275
2.495,-0.695697048460745
2.5,-0.709660791587793
2.505,-0.723000928883706
2.51,-0.735706176726707
2.515,-0.747769942863113
2.52,-0.759188918491007
2.525,-0.769961884601665
2.53,-0.780088714738487
2.535,-0.789569559053369
2.54,-0.798404196951283
2.545,-0.80659154764203
2.55,-0.814129329506926
2.555,-0.821013860295198
2.56,-0.82723999076157
2.565,-0.832801164429679
2.57,-0.837689595719708
2.575,-0.841896557738789
2.58,-0.845412769649485
2.585,-0.848228871782956
2.59,-0.850335974656168
2.595,-0.851726265922167
2.6,-0.852393657189004
2.605,-0.852334450764504
2.61,-0.851548004907331
2.615,-0.850037375269878
2.62,-0.84780991006695
2.625,-0.844877777220013
2.63,-0.841258403383863
2.635,-0.836974807371203
2.64,-0.832055813991894
2.645,-0.826536138586636
2.65,-0.820456337364872
2.655,-0.813862623806694
2.66,-0.806806556579227
2.665,-0.799344609360052
2.67,-0.791537637379509
2.675,-0.783450259154644
2.68,-0.775150174610121
2.685,-0.766707442458892
2.69,-0.758193740314457
2.695,-0.749681630571159
2.7,-0.741243853727256
2.705,-0.732952668699786
2.71,-0.724879256986898
2.715,-0.717093204486157
2.72,-0.709662071590571
2.725,-0.702651059056184
2.73,-0.696122774240026
2.735,-0.690137099784045
2.74,-0.684751164778025
2.745,-0.680019416941265
2.75,-0.675993793464497
2.755,-0.672723987869866
2.76,-0.670257810583594
2.765,-0.668641641876505
2.77,-0.667920977417279
2.775,-0.668141068925361
2.78,-0.669347665353837
2.785,-0.671587863764999
2.79,-0.674911083725891
2.795,-0.679370184861402
2.8,-0.685022754472808
2.805,-0.691932601303596
2.81,-0.700171503238247
2.815,-0.709821271829706
2.82,-0.72097621629592
2.825,-0.733746115734555
2.83,-0.748259843230696
2.835,-0.76466983277927
2.84,-0.783157644572393
2.845,-0.803940973591068
2.85,-0.827282571473561
2.855,-0.853501728553023
2.86,-0.88298921630239
2.865,-0.9162269577489
2.87,-0.953814232950963
2.875,-0.996503029883938
2.88,-1.04524636385577
2.885,-1.10126524625976
2.89,-1.16614287086204
2.895,-1.24195913858501
2.9,-1.33148591699986
2.905,-1.43847518475348
2.91,-1.56809131363424
2.915,-1.72756964088052
2.92,-1.92723207704278
2.925,-2.1820603876366
2.93,-2.5141006156744
2.935,-2.95592260210291
2.94,-3.55460772430473
2.945,-4.37187246448886
2.95,-5.45969682641922
2.955,-6.73703516382656
2.96,-7.66003620455221
2.965,-7.31933614981764
2.97,-5.91688900364856
2.975,-4.44045180034203
2.98,-3.31295429134681
2.985,-2.53682863316231
2.99,-2.01837200066104
2.995,-1.67314245413798
3,-1.44212715624826
