"Freq [GHz]","dB(St(Driver_T1,Driver_T1)) []"
1,-1.75603685102135
1.005,-1.60952738890579
1.01,-1.48152075670935
1.015,-1.36923434030443
1.02,-1.27039350278935
1.025,-1.18313584696395
1.03,-1.10593308930022
1.035,-1.03752756221889
1.04,-0.976880675506979
1.045,-0.923131062258886
1.05,-0.875560529497251
1.055,-0.833566292161918
1.06,-0.796638278160513
1.065,-0.764340549926695
1.07,-0.736296097924041
1.075,-0.712174429146449
1.08,-0.691681504581364
1.085,-0.674551679146159
1.09,-0.660541370610395
1.095,-0.649424234896441
1.1,-0.640987658075237
1.105,-0.6350303943912
1.11,-0.631361188739537
1.115,-0.629798225039021
1.12,-0.630169242487358
1.125,-0.63231216287903
1.13,-0.636076076450879
1.135,-0.64132244269046
1.14,-0.647926376857015
1.145,-0.655777912384336
1.15,-0.664783152863743
1.155,-0.674865253427582
1.16,-0.685965198312446
1.165,-0.698042367460942
1.17,-0.711074908783267
1.175,-0.725059953148242
1.18,-0.740013725833862
1.185,-0.755971621086162
1.19,-0.772988316122597
1.195,-0.791138008246441
1.2,-0.810514864844167
1.205,-0.831233782210098
1.21,-0.853431556754949
1.215,-0.877268582612424
1.22,-0.902931204367945
1.225,-0.930634873978699
1.23,-0.960628288238992
1.235,-0.993198718458952
1.24,-1.02867878791695
1.245,-1.0674550044344
1.25,-1.10997841179059
1.255,-1.15677777595978
1.26,-1.20847575103188
1.265,-1.2658084354329
1.27,-1.32964855313604
1.275,-1.40103202577014
1.28,-1.48118665491749
1.285,-1.57155948297834
1.29,-1.67383519712813
1.295,-1.78993003794428
1.3,-1.92193139613668
1.305,-2.07192881318744
1.31,-2.24164365230338
1.315,-2.43171394889415
1.32,-2.64045162353925
1.325,-2.86194469615223
1.33,-3.08372071669866
1.335,-3.28507892835349
1.34,-3.43850862497759
1.345,-3.51681205360332
1.35,-3.50493844019523
1.355,-3.4090858810677
1.36,-3.25485637866137
1.365,-3.07559321554555
1.37,-2.90028283605039
1.375,-2.74781426299978
1.38,-2.62730852591052
1.385,-2.54109769539141
1.39,-2.48776455398776
1.395,-2.46428479711303
1.4,-2.46725907765277
1.405,-2.49351104275617
1.41,-2.54031668844648
1.415,-2.60544500661551
1.42,-2.68711410900468
1.425,-2.78391728311893
1.43,-2.89474499119776
1.435,-3.01871388128311
1.44,-3.15510655192571
1.445,-3.30332247816902
1.45,-3.46283914880507
1.455,-3.63318202650972
1.46,-3.81390189650003
1.465,-4.00455826764108
1.47,-4.20470762522484
1.475,-4.41389546786664
1.48,-4.63165118359182
1.485,-4.85748493528793
1.49,-5.09088583878971
1.495,-5.33132083197382
1.5,-5.57823375176008
1.505,-5.83104425684855
1.51,-6.08914635485486
1.515,-6.35190641017322
1.52,-6.61866062056279
1.525,-6.88871205398252
1.53,-7.1613274312278
1.535,-7.43573392364614
1.54,-7.71111630789395
1.545,-7.98661488009111
1.55,-8.26132457744788
1.555,-8.5342957824778
1.56,-8.8045372874326
1.565,-9.07102186712731
1.57,-9.33269483852964
1.575,-9.58848586759817
1.58,-9.83732411280344
1.585,-10.0781565707831
1.59,-10.3099692208914
1.595,-10.5318102702544
1.6,-10.7428145081362
1.605,-10.9422275254484
1.61,-11.1294283835675
1.615,-11.3039492644118
1.62,-11.4654907272001
1.625,-11.6139314429438
1.63,-11.7493316576653
1.635,-11.8719301080448
1.64,-11.9821346197853
1.645,-12.0805070941038
1.65,-12.1677439722185
1.655,-12.2446535194439
1.66,-12.312131371099
1.665,-12.3711357378662
1.67,-12.4226635044371
1.675,-12.4677282103463
1.68,-12.5073406174528
1.685,-12.5424922823294
1.69,-12.5741422929491
1.695,-12.6032071158881
1.7,-12.6305533409408
1.705,-12.6569930043634
1.71,-12.683281114072
1.715,-12.7101149810188
1.72,-12.7381349706993
1.725,-12.7679263178196
1.73,-12.8000216874747
1.735,-12.8349042113749
1.74,-12.8730107730822
1.745,-12.9147353588026
1.75,-12.9604323282161
1.755,-13.0104194922431
1.76,-13.0649809113741
1.765,-13.1243693494561
1.77,-13.1888083341604
1.775,-13.2584937873704
1.78,-13.3335951971155
1.785,-13.4142563080971
1.79,-13.5005953109579
1.795,-13.5927045118281
1.8,-13.6906494639321
1.805,-13.7944675427262
1.81,-13.9041659457625
1.815,-14.0197190988914
1.82,-14.141065452283
1.825,-14.2681036539615
1.83,-14.4006880961779
1.835,-14.5386238423053
1.84,-14.6816609605576
1.845,-14.8294883174997
1.85,-14.9817269210013
1.855,-15.1379229510287
1.86,-15.2975406793306
1.865,-15.4599555569422
1.87,-15.6244478416455
1.875,-15.7901972441964
1.88,-15.9562791873715
1.885,-16.1216633865205
1.89,-16.2852155597802
1.895,-16.4457031397217
1.9,-16.6018058593503
1.905,-16.7521319934669
1.91,-16.8952408211284
1.915,-17.0296715134003
1.92,-17.1539781367579
1.925,-17.2667698175919
1.93,-17.366754393873
1.935,-17.4527831796818
1.94,-17.5238939087077
1.945,-17.579348632658
1.95,-17.6186634345071
1.955,-17.6416273224429
1.96,-17.6483085653338
1.965,-17.6390478973426
1.97,-17.6144392774659
1.975,-17.5753000368851
1.98,-17.5226331073687
1.985,-17.4575844882824
1.99,-17.3813991538567
1.995,-17.2953782810311
2,-17.2008401000982
2.005,-17.0877518727376
2.01,-16.9739163544315
2.015,-16.8604914995081
2.02,-16.7485793840523
2.025,-16.639205594733
2.03,-16.5332996688766
2.035,-16.4316762662256
2.04,-16.3350166607421
2.045,-16.2438500902103
2.05,-16.1585344940475
2.055,-16.079236210509
2.06,-16.0059083033761
2.065,-15.9382673619443
2.07,-15.8757688907657
2.075,-15.8175818075825
2.08,-15.7625631321749
2.085,-15.7092347022276
2.09,-15.6557646998782
2.095,-15.5999578732861
2.1,-15.5392594714155
2.105,-15.4707788432496
2.11,-15.3913390144844
2.115,-15.2975578570614
2.12,-15.1859641979804
2.125,-15.0531480356587
2.13,-14.8959380622969
2.135,-14.7115927708012
2.14,-14.4979851912866
2.145,-14.2537578682362
2.15,-13.9784258959018
2.155,-13.672412319023
2.16,-13.3370108287666
2.165,-12.9742826986765
2.17,-12.5869050058021
2.175,-12.1779928335661
2.18,-11.75091850762
2.185,-11.3091468674736
2.19,-10.8560990744354
2.195,-10.3950505778957
2.2,-9.92906312529686
2.205,-9.46094681875751
2.21,-8.9932462176949
2.215,-8.52824397944272
2.22,-8.06797600178901
2.225,-7.61425301099176
2.23,-7.16868467985915
2.235,-6.73270345119042
2.24,-6.30758617909483
2.245,-5.89447245406173
2.25,-5.49437905771395
2.255,-5.10821042829881
2.26,-4.73676533979604
2.265,-4.38074023320924
2.27,-4.04072980766954
2.275,-3.71722559305887
2.28,-3.41061329017421
2.285,-3.12116968020728
2.29,-2.84905987237193
2.295,-2.59433557797556
2.3,-2.35693497537024
2.305,-2.13668457151468
2.31,-1.9333032849345
2.315,-1.74640878725711
2.32,-1.57552596280244
2.325,-1.42009719322232
2.33,-1.27949405876879
2.335,-1.15302997639909
2.34,-1.03997326907531
2.345,-0.939560176662595
2.35,-0.851007369186277
2.355,-0.773523597904543
2.36,-0.706320208012692
2.365,-0.648620328863165
2.37,-0.59966664515819
2.375,-0.558727729728144
2.38,-0.525102981705428
2.385,-0.498126261736923
2.39,-0.47716834864494
2.395,-0.461638361130294
2.4,-0.450984295888739
2.405,-0.444692832338118
2.41,-0.442288546450895
2.415,-0.443332664143221
2.42,-0.447421470129224
2.425,-0.454184472566393
2.43,-0.463282408279692
2.435,-0.474405158611816
2.44,-0.487269632480821
2.445,-0.501617661293621
2.45,-0.517213940060111
2.455,-0.53384404036062
2.46,-0.551312513645524
2.465,-0.569441097553098
2.47,-0.588067033360433
2.475,-0.607041499166813
2.48,-0.626228160788243
2.485,-0.645501840464418
2.49,-0.664747302207986
2.495,-0.683858151837715
2.5,-0.702735849322484
2.505,-0.721288830927087
2.51,-0.739431738707334
2.515,-0.757084755076388
2.52,-0.774173040387693
2.525,-0.7906262716906
2.53,-0.806378280955977
2.535,-0.821366791087433
2.54,-0.835533247883188
2.545,-0.848822745750311
2.55,-0.861184044363968
2.555,-0.872569672582911
2.56,-0.882936114767277
2.565,-0.892244073197548
2.57,-0.900458798587355
2.575,-0.907550478761307
2.58,-0.913494673501417
2.585,-0.918272781445963
2.59,-0.921872522871948
2.595,-0.924288420346871
2.6,-0.925522257752071
2.605,-0.925583497219459
2.61,-0.924489633240919
2.615,-0.922266463738496
2.62,-0.918948259324174
2.625,-0.914577814378376
2.63,-0.909206366925594
2.635,-0.902893378500117
2.64,-0.895706170122361
2.645,-0.88771941592498
2.65,-0.879014501603773
2.655,-0.869678760409958
2.66,-0.859804604526836
2.665,-0.849488574077953
2.67,-0.838830329433049
2.675,-0.827931614712858
2.68,-0.816895221330112
2.685,-0.805823980017898
2.69,-0.794819808156311
2.695,-0.783982836466578
2.7,-0.773410635516027
2.705,-0.763197558231967
2.71,-0.753434210042079
2.715,-0.744207053626187
2.72,-0.735598150837923
2.725,-0.727685040354133
2.73,-0.720540746203655
2.735,-0.714233909628569
2.74,-0.708829034799565
2.745,-0.704386837752085
2.75,-0.700964687501205
2.755,-0.698617128568982
2.76,-0.69739647503822
2.765,-0.697353467642199
2.77,-0.698537987221522
2.775,-0.70099982004771
2.78,-0.704789472961236
2.785,-0.709959038952943
2.79,-0.716563116705142
2.795,-0.724659790698309
2.8,-0.734311681801061
2.805,-0.745587081835842
2.81,-0.758561189515887
2.815,-0.773317469464199
2.82,-0.789949160856865
2.825,-0.808560967698675
2.83,-0.829270968966114
2.835,-0.852212793964581
2.84,-0.877538116343112
2.845,-0.905419529332911
2.85,-0.936053874846397
2.855,-0.969666109793563
2.86,-1.00651380365122
2.865,-1.04689237059723
2.87,-1.09114114489998
2.875,-1.1396504053472
2.88,-1.19286943580063
2.885,-1.25131566185134
2.89,-1.31558480707977
2.895,-1.38636183220834
2.9,-1.46443210060989
2.905,-1.55069166448592
2.91,-1.6461546456438
2.915,-1.75195417354345
2.92,-1.86933091256252
2.925,-1.99959939598809
2.93,-2.14407659753091
2.935,-2.3039488381155
2.94,-2.48004216194033
2.945,-2.67244936827356
2.95,-2.87996007009122
2.955,-3.09925404338518
2.96,-3.32388412224111
2.965,-3.54324012876023
2.97,-3.7419821165528
2.975,-3.90077730581413
2.98,-3.99922227652663
2.985,-4.02101459970222
2.99,-3.95966064491881
2.995,-3.82159494861938
3,-3.62452677847942
