"Freq [GHz]","dB(St(Driver_T1,Driver_T1)) []"
1,-0.739384417843029
1.005,-0.713808494595449
1.01,-0.69136225480117
1.015,-0.672135319604161
1.02,-0.656198876916413
1.025,-0.643602557230443
1.03,-0.634371553767223
1.035,-0.628504161698128
1.04,-0.625969918039065
1.045,-0.626708517490223
1.05,-0.630629657867885
1.055,-0.63761393118649
1.06,-0.647514824135237
1.065,-0.660161827977628
1.07,-0.675364588057292
1.075,-0.692917953827306
1.08,-0.712607728935488
1.085,-0.734216874249693
1.09,-0.757531890155935
1.095,-0.782349101034278
1.1,-0.808480584747494
1.105,-0.835759530730294
1.11,-0.864044867026035
1.115,-0.893225063123847
1.12,-0.923221085007347
1.125,-0.953988545282029
1.13,-0.985519149760573
1.135,-1.01784158939454
1.14,-1.05102206181143
1.145,-1.08516463058814
1.15,-1.12041164484476
1.155,-1.15694444986283
1.16,-1.19498462488395
1.165,-1.23479599092126
1.17,-1.27668764318209
1.175,-1.32101828324378
1.18,-1.36820215886584
1.185,-1.41871696729577
1.19,-1.47311414349926
1.195,-1.53203203892336
1.2,-1.59621259725385
1.205,-1.66652224303043
1.21,-1.74397779605585
1.215,-1.82977826282346
1.22,-1.92534323887703
1.225,-2.03235818852767
1.23,-2.15282566842074
1.235,-2.2891188908253
1.24,-2.444028478846
1.245,-2.62078224160829
1.25,-2.82299660909617
1.255,-3.05447912092304
1.26,-3.31873247123579
1.265,-3.61790085458339
1.27,-3.95075920269781
1.275,-4.30927803984162
1.28,-4.67366251080874
1.285,-5.00736777768337
1.29,-5.25712033947222
1.295,-5.36591006839732
1.3,-5.3002673794872
1.305,-5.07377046162746
1.31,-4.74251180843228
1.315,-4.37587871491897
1.32,-4.02954040084716
1.325,-3.73594162814169
1.33,-3.50788990313694
1.335,-3.34602816506629
1.34,-3.24511183187479
1.345,-3.19792593420604
1.35,-3.19730418817495
1.355,-3.23697946270621
1.36,-3.31181830970866
1.365,-3.41777232482755
1.37,-3.55172252860379
1.375,-3.71130099262659
1.38,-3.89472541522619
1.385,-4.10065874711407
1.39,-4.32809542723655
1.395,-4.57627165892578
1.4,-4.84459596813648
1.405,-5.13259632662675
1.41,-5.43988059088596
1.415,-5.76610755177634
1.42,-6.11096637518057
1.425,-6.4741626031463
1.43,-6.8554091813261
1.435,-7.25442119868627
1.44,-7.6709131875988
1.445,-8.10459795099771
1.45,-8.55518596757159
1.455,-9.02238448020594
1.46,-9.50589539705633
1.465,-10.0054111255337
1.47,-10.5206074119558
1.475,-11.0511321678817
1.48,-11.5965891235178
1.485,-12.1565149580857
1.49,-12.7303483236422
1.495,-13.3173889246917
1.5,-13.9167445901308
1.505,-14.5272641714357
1.51,-15.1474542894038
1.515,-15.7753787083569
1.52,-16.4085408662784
1.525,-17.0437534234884
1.53,-17.6770043188454
1.535,-18.3033373491735
1.54,-18.9167767040595
1.545,-19.5103376287558
1.55,-20.0761750990982
1.555,-20.6059211425791
1.56,-21.0912390403868
1.565,-21.5245720879684
1.57,-21.8999914344478
1.575,-22.2139773146612
1.58,-22.4659407312795
1.585,-22.6583388391972
1.59,-22.7963496074499
1.595,-22.8872001683003
1.6,-22.9393276459224
1.605,-22.9615601087529
1.61,-22.9624521912077
1.615,-22.9498338257816
1.62,-22.9305663592105
1.625,-22.9104636315221
1.63,-22.8943246026172
1.635,-22.8860292881238
1.64,-22.8886616228944
1.645,-22.9046352080489
1.65,-22.9358078514739
1.655,-22.9835776997122
1.66,-23.0489579473434
1.665,-23.1326292854875
1.67,-23.2349700706998
1.675,-23.3560641700105
1.68,-23.4956859345259
1.685,-23.6532610485672
1.69,-23.8278013495632
1.695,-24.0178114358743
1.7,-24.2211654577832
1.705,-24.4349546718363
1.71,-24.6553112292973
1.715,-24.8772226641071
1.72,-25.0943659507615
1.725,-25.29900995083
1.73,-25.4820574268778
1.735,-25.6333133586863
1.74,-25.7420581984436
1.745,-25.7979526973754
1.75,-25.7921961115214
1.755,-25.718726255476
1.76,-25.5751543950541
1.765,-25.3631479505501
1.77,-25.0881331066105
1.775,-24.758417307063
1.78,-24.3840054653184
1.785,-23.9754222026942
1.79,-23.5427679387557
1.795,-23.0951037444061
1.8,-22.6401491015126
1.805,-22.1842179455074
1.81,-21.7323057428504
1.815,-21.2882540153099
1.82,-20.8549409570195
1.825,-20.4344674213731
1.83,-20.0283228328213
1.835,-19.6375253606805
1.84,-19.2627362177181
1.845,-18.9043506377668
1.85,-18.5625690868881
1.855,-18.2374523526406
1.86,-17.9289638167197
1.865,-17.6370017196967
1.87,-17.3614237137329
1.875,-17.10206553456
1.88,-16.8587552307509
1.885,-16.631324068538
1.89,-16.4196149770641
1.895,-16.2234892016617
1.9,-16.0428316810351
1.905,-15.8775555486394
1.91,-15.7276060711966
1.915,-15.5929642717405
1.92,-15.4736504357634
1.925,-15.3697276629169
1.93,-15.2813056001292
1.935,-15.2085444723047
1.94,-15.151659511711
1.945,-15.1109258745301
1.95,-15.0866841204637
1.955,-15.0793463157545
1.96,-15.0894027974317
1.965,-15.1174296010017
1.97,-15.1640964960775
1.975,-15.2301754803731
1.98,-15.316549429735
1.985,-15.4242203548995
1.99,-15.5543163175563
1.995,-15.7080954174884
2,-15.8869442310299
2.005,-16.0915201694236
2.01,-16.3231102092255
2.015,-16.5830531546745
2.02,-16.8724562062125
2.025,-17.191963533289
2.03,-17.5413840088425
2.035,-17.9191037610903
2.04,-18.3211820188013
2.045,-18.7400124581564
2.05,-19.1624694501093
2.055,-19.5676470482771
2.06,-19.924802026375
2.065,-20.1930412090259
2.07,-20.3252421215217
2.075,-20.2780941303609
2.08,-20.0261103561065
2.085,-19.5718936535048
2.09,-18.9450739511321
2.095,-18.1907625460706
2.1,-17.3557973834623
2.105,-16.47973903838
2.11,-15.5918481918868
2.115,-14.7118497051285
2.12,-13.852104204561
2.125,-13.01982680715
2.13,-12.2188555139036
2.135,-11.4509098872093
2.14,-10.7164337382613
2.145,-10.0151388148468
2.15,-9.34634648318664
2.155,-8.70919726943756
2.16,-8.10277540637153
2.165,-7.52617917354389
2.17,-6.9785568255553
2.175,-6.45912077291071
2.18,-5.96714814665063
2.185,-5.50197302916039
2.19,-5.06297385509711
2.195,-4.64955837696796
2.2,-4.26114789077202
2.205,-3.89716196234597
2.21,-3.55700457912245
2.215,-3.24005240942641
2.22,-2.94564564392274
2.225,-2.67308170202713
2.23,-2.42161190371308
2.235,-2.19044103640439
2.24,-1.97872959440526
2.245,-1.78559834285214
2.25,-1.61013476654908
2.255,-1.45140091040838
2.26,-1.3084421029323
2.265,-1.18029607388318
2.27,-1.06600202564747
2.275,-0.964609286597249
2.28,-0.875185255188297
2.285,-0.796822427331844
2.29,-0.728644379816341
2.295,-0.669810654127437
2.3,-0.619520544739035
2.305,-0.577015842419418
2.31,-0.541582616353766
2.315,-0.512552140013111
2.32,-0.489301076430822
2.325,-0.471251040910911
2.33,-0.457867655250142
2.335,-0.448659199216954
2.34,-0.443174953944725
2.345,-0.441003319406851
2.35,-0.441769775280065
2.355,-0.445134742019193
2.36,-0.450791387367594
2.365,-0.458463413122618
2.37,-0.467902847923664
2.375,-0.478887864181846
2.38,-0.49122063100008
2.385,-0.504725209968822
2.39,-0.519245496969323
2.395,-0.534643210465566
2.4,-0.550795925112828
2.405,-0.567595148755529
2.41,-0.584944440943039
2.415,-0.602757571882596
2.42,-0.620956722208794
2.425,-0.63947072602032
2.43,-0.658233362260923
2.435,-0.677181702641543
2.44,-0.696254527840061
2.445,-0.715390827576649
2.45,-0.734528404215445
2.455,-0.753602603611039
2.46,-0.772545200771428
2.465,-0.791283471255904
2.47,-0.809739481712564
2.475,-0.827829634173905
2.48,-0.845464498219241
2.485,-0.862548962416599
2.49,-0.878982731148425
2.495,-0.894661184671207
2.5,-0.909476608892967
2.505,-0.923319786948898
2.51,-0.936081927602407
2.515,-0.947656886547701
2.52,-0.957943616972846
2.525,-0.966848766735119
2.53,-0.974289322932762
2.535,-0.980195192346776
2.54,-0.984511599881074
2.545,-0.987201188097268
2.55,-0.988245709992928
2.555,-0.987647224315301
2.56,-0.985428727093923
2.565,-0.981634183048365
2.57,-0.97632795374979
2.575,-0.96959365314958
2.58,-0.961532492529896
2.585,-0.952261203553916
2.59,-0.941909647957111
2.595,-0.930618234384116
2.6,-0.918535266686163
2.605,-0.905814344254362
2.61,-0.892611924989337
2.615,-0.879085147113688
2.62,-0.865389989301045
2.625,-0.851679831651718
2.63,-0.838104464904575
2.635,-0.824809583746581
2.64,-0.811936793783427
2.645,-0.799624162177254
2.65,-0.788007350752499
2.655,-0.777221389531293
2.66,-0.767403181058398
2.665,-0.758694875919691
2.67,-0.751248334513572
2.675,-0.74523100055257
2.68,-0.740833675933722
2.685,-0.738280933773177
2.69,-0.737845284677119
2.695,-0.739866800971632
2.7,-0.744780840508652
2.705,-0.753158029369719
2.71,-0.765763168425682
2.715,-0.783643938824091
2.72,-0.808267457524809
2.725,-0.841735050382094
2.73,-0.887126541167334
2.735,-0.949059124874584
2.74,-1.03459104431298
2.745,-1.15461464565289
2.75,-1.3256224828494
2.755,-1.57008246614906
2.76,-1.90656994501318
2.765,-2.30144889033285
2.77,-2.56606818835049
2.775,-2.43144729461913
2.78,-1.97402869754691
2.785,-1.50935001713241
2.79,-1.17448853993144
2.795,-0.958533302805138
2.8,-0.822346018782586
2.805,-0.735892411529195
2.81,-0.680418192732595
2.815,-0.644713852267443
2.82,-0.622046216937029
2.825,-0.608284090913952
2.83,-0.600826476881705
2.835,-0.59799315604716
2.84,-0.59867277239234
2.845,-0.602114881957444
2.85,-0.60780393935275
2.855,-0.615381002462029
2.86,-0.624593911305169
2.865,-0.635264870224574
2.87,-0.647268913099216
2.875,-0.660519321856883
2.88,-0.674957577119851
2.885,-0.690546317954542
2.89,-0.707264333842934
2.895,-0.725102950811474
2.9,-0.744063387838692
2.905,-0.764154797466226
2.91,-0.785392794672029
2.915,-0.807798337934373
2.92,-0.8313968667608
2.925,-0.856217627515194
2.93,-0.882293138442078
2.935,-0.909658758137281
2.94,-0.93835233116938
2.945,-0.96841389132666
2.95,-0.999885407864209
2.955,-1.03281056370871
2.96,-1.06723455722629
2.965,-1.10320392113599
2.97,-1.14076635364457
2.975,-1.17997055801909
2.98,-1.2208660876958
2.985,-1.26350319471618
2.99,-1.30793267983093
2.995,-1.35420574305783
3,-1.40237383384402
