"Freq [GHz]","dB(St(Driver_T1,Driver_T1)) []"
1,-1.14808602374212
1.005,-1.0692638177244
1.01,-1.00008656863459
1.015,-0.939490592435941
1.02,-0.88655307401027
1.025,-0.840477110935485
1.03,-0.800576822809394
1.035,-0.766262976648341
1.04,-0.737029392923821
1.045,-0.712440278055322
1.05,-0.692118559507276
1.055,-0.675735264169191
1.06,-0.662999967308341
1.065,-0.653652338206491
1.07,-0.647454811667355
1.075,-0.644186415704512
1.08,-0.643637780453426
1.085,-0.645607339131381
1.09,-0.649898708101267
1.095,-0.656319201124456
1.1,-0.664679395762566
1.105,-0.674793631875477
1.11,-0.686481288058504
1.115,-0.699568656191388
1.12,-0.713891220533551
1.125,-0.729296147901863
1.13,-0.745644809462956
1.135,-0.762815180849366
1.14,-0.780704002579077
1.145,-0.799228623250134
1.15,-0.818328489699999
1.155,-0.837966287729137
1.16,-0.858128771440827
1.165,-0.878827347191391
1.17,-0.900098499132387
1.175,-0.922004157876232
1.18,-0.944632123172171
1.185,-0.968096657343689
1.19,-0.992539370529217
1.195,-1.01813052342405
1.2,-1.04507088006174
1.205,-1.07359425380301
1.21,-1.10397090541994
1.215,-1.13651197383451
1.22,-1.17157514783942
1.225,-1.20957181985468
1.23,-1.25097599689777
1.235,-1.29633527132721
1.24,-1.34628415775875
1.245,-1.40156004985297
1.25,-1.46302187837595
1.255,-1.53167114167352
1.26,-1.60867411227019
1.265,-1.69538229804727
1.27,-1.79334493301759
1.275,-1.90430112815645
1.28,-2.03012820702874
1.285,-2.17270340985136
1.29,-2.33360439372939
1.295,-2.51352726590412
1.3,-2.71124808004
1.305,-2.92194177896104
1.31,-3.13484071490563
1.315,-3.33084182293424
1.32,-3.48199819396215
1.325,-3.55618890596611
1.33,-3.52887511336944
1.335,-3.39711317268551
1.34,-3.18447602701452
1.345,-2.93104117107475
1.35,-2.67658829421897
1.355,-2.44919439381335
1.36,-2.26303863863268
1.365,-2.12177049940842
1.37,-2.02300557688607
1.375,-1.96176922578599
1.38,-1.93253043828461
1.385,-1.93018199993336
1.39,-1.95039939637997
1.395,-1.98968785122571
1.4,-2.04529714296831
1.405,-2.11509565123365
1.41,-2.19744488454223
1.415,-2.29109011240742
1.42,-2.39507079096198
1.425,-2.50864951757723
1.43,-2.63125660475852
1.435,-2.76244716312439
1.44,-2.90186793450256
1.445,-3.04923161673385
1.45,-3.20429690592875
1.455,-3.36685289280581
1.46,-3.53670677748487
1.465,-3.71367411996433
1.47,-3.89757103500045
1.475,-4.08820788372736
1.48,-4.28538412172029
1.485,-4.48888404365333
1.49,-4.6984732254981
1.495,-4.9138955118921
1.5,-5.13487043306097
1.505,-5.3610909656554
1.51,-5.59222157740958
1.515,-5.82789651838555
1.52,-6.06771834298729
1.525,-6.31125666776495
1.53,-6.55804719077657
1.535,-6.80759101909279
1.54,-7.05935437172909
1.545,-7.31276874531724
1.55,-7.56723164823373
1.555,-7.82210802432539
1.56,-8.07673249803546
1.565,-8.33041257649866
1.57,-8.58243293864952
1.575,-8.83206092412991
1.58,-9.07855330360383
1.585,-9.32116436544996
1.59,-9.55915529131978
1.595,-9.79180471596765
1.6,-10.0184202784112
1.605,-10.2383508775191
1.61,-10.4509992534435
1.615,-10.6558344365493
1.62,-10.8524035480197
1.625,-11.04034241088
1.63,-11.2193844442168
1.635,-11.3893673704855
1.64,-11.5502373646007
1.645,-11.7020504071933
1.65,-11.8449707613649
1.655,-11.9792666574607
1.66,-12.1053034275743
1.665,-12.2235344656432
1.67,-12.3344904883711
1.675,-12.4387676299388
1.68,-12.5370149180333
1.685,-12.6299216536519
1.69,-12.7182051597858
1.695,-12.802599284156
1.7,-12.8838439490094
1.705,-12.9626759462101
1.71,-13.0398210863921
1.715,-13.1159877324175
1.72,-13.1918616831716
1.725,-13.2681023250563
1.73,-13.345339935041
1.735,-13.4241739992422
1.74,-13.5051724025254
1.745,-13.5888713451012
1.75,-13.6757758490765
1.755,-13.766360729267
1.76,-13.8610719164017
1.765,-13.9603280357306
1.77,-14.0645221588552
1.775,-14.1740236606022
1.78,-14.2891801254282
1.785,-14.4103192589164
1.79,-14.5377507692539
1.795,-14.6717681911484
1.8,-14.8126506304802
1.805,-14.9606644121766
1.81,-15.1160646163926
1.815,-15.2790964891651
1.82,-15.4499967132898
1.825,-15.6289945232341
1.83,-15.816312644382
1.835,-16.0121680316351
1.84,-16.2167723751637
1.845,-16.4303323315519
1.85,-16.6530494262704
1.855,-16.8851195577317
1.86,-17.1267320133591
1.865,-17.3780678831661
1.87,-17.6392977250867
1.875,-17.9105782972891
1.88,-18.1920481242338
1.885,-18.4838216034441
1.89,-18.7859812868591
1.895,-19.0985678825015
1.9,-19.4215674179806
1.905,-19.7548948876913
1.91,-20.0983735743421
1.915,-20.4517091023534
1.92,-20.8144571653491
1.925,-21.1859838080608
1.93,-21.5654171948537
1.935,-21.9515900590184
1.94,-22.34297264362
1.945,-22.7375971182842
1.95,-23.1329764422488
1.955,-23.5260237130404
1.96,-23.9129823748892
1.965,-24.2893831486893
1.97,-24.6500494449881
1.975,-24.9891775621219
1.98,-25.300518107554
1.985,-25.5776768687813
1.99,-25.81453353016
1.995,-26.0057454771446
2,-26.1472683346017
2.005,-26.2605784424682
2.01,-26.3500935011033
2.015,-26.4170865330486
2.02,-26.4627497995351
2.025,-26.4878587650585
2.03,-26.4924324701939
2.035,-26.4754195757079
2.04,-26.4344437186681
2.045,-26.3656506598372
2.05,-26.2637112212054
2.055,-26.1220412232661
2.06,-25.9332899630415
2.065,-25.6901078381467
2.07,-25.3861257362762
2.075,-25.0169809469553
2.08,-24.5811522419995
2.085,-24.0803748230919
2.09,-23.5195150079486
2.095,-22.9059527897523
2.1,-22.2486636131929
2.105,-21.5572427720068
2.11,-20.841071688696
2.115,-20.1087305914091
2.12,-19.3676705996232
2.125,-18.6241003432553
2.13,-17.883020987074
2.135,-17.148347152942
2.14,-16.4230660018242
2.145,-15.7094031674082
2.15,-15.0089777769804
2.155,-14.3229382701628
2.16,-13.652076589329
2.165,-12.9969215329294
2.17,-12.3578135615986
2.175,-11.7349638315386
2.18,-11.1285001726616
2.185,-10.5385024203516
2.19,-9.96502911467268
2.195,-9.40813718635008
2.2,-8.86789589599176
2.205,-8.34439599779255
2.21,-7.83775486460679
2.215,-7.34811813516435
2.22,-6.87565832143383
2.225,-6.42057073904858
2.23,-5.98306709032777
2.235,-5.56336703125818
2.24,-5.1616880834477
2.245,-4.77823430082562
2.25,-4.41318415863098
2.255,-4.06667818772237
2.26,-3.73880691875094
2.265,-3.42959971729158
2.27,-3.13901507383839
2.275,-2.86693285652411
2.28,-2.61314893921454
2.285,-2.37737248829021
2.29,-2.15922603795286
2.295,-1.95824831998829
2.3,-1.77389965501534
2.305,-1.60556957320938
2.31,-1.45258622540454
2.315,-1.31422707808042
2.32,-1.1897303606208
2.325,-1.07830674801923
2.33,-0.979150810493618
2.335,-0.891451834254445
2.34,-0.814403704927852
2.345,-0.74721363724903
2.35,-0.689109623465784
2.355,-0.639346552354532
2.36,-0.597211017034141
2.365,-0.562024881143849
2.37,-0.533147709418844
2.375,-0.509978191479613
2.38,-0.491954698737434
2.385,-0.478555116046513
2.39,-0.469296084471176
2.395,-0.463731781466055
2.4,-0.461452351759521
2.405,-0.462082087793064
2.41,-0.46527744384667
2.415,-0.47072495378699
2.42,-0.478139109245067
2.425,-0.487260243274011
2.43,-0.497852454293568
2.435,-0.509701596415363
2.44,-0.522613354994641
2.445,-0.536411420355553
2.45,-0.5509357679438
2.455,-0.566041049519432
2.46,-0.581595097260611
2.465,-0.597477540662206
2.47,-0.613578534748071
2.475,-0.629797597254319
2.48,-0.646042551977481
2.485,-0.662228575323514
2.49,-0.678277343160138
2.495,-0.694116275293738
2.5,-0.709677875199034
2.505,-0.724899162966868
2.51,-0.739721199749023
2.515,-0.754088702220305
2.52,-0.76794974570139
2.525,-0.781255554549788
2.53,-0.793960378194679
2.535,-0.806021450734797
2.54,-0.817399031315751
2.545,-0.82805652154603
2.55,-0.837960655003752
2.555,-0.847081752451976
2.56,-0.855394034761137
2.565,-0.862875983796078
2.57,-0.869510739746995
2.575,-0.875286521672362
2.58,-0.880197056498027
2.585,-0.884242000509237
2.59,-0.887427336612639
2.595,-0.889765730454108
2.6,-0.891276828955979
2.605,-0.891987486051915
2.61,-0.891931902373152
2.615,-0.891151668351062
2.62,-0.889695703566156
2.625,-0.887620089060235
2.63,-0.884987793554878
2.635,-0.88186829887246
2.64,-0.878337134100807
2.645,-0.874475331949023
2.65,-0.870368824096721
2.655,-0.866107794969596
2.66,-0.861786015161298
2.665,-0.857500176607221
2.67,-0.853349251608851
2.675,-0.84943389698
2.68,-0.845855923063378
2.685,-0.842717845315729
2.69,-0.840122533776044
2.695,-0.838172973217594
2.7,-0.836972144341356
2.705,-0.836623034177814
2.71,-0.837228782083196
2.715,-0.83889296646978
2.72,-0.841720036788372
2.725,-0.845815895340966
2.73,-0.851288634267371
2.735,-0.858249434512505
2.74,-0.866813635703065
2.745,-0.877101988565468
2.75,-0.889242104675004
2.755,-0.903370121737872
2.76,-0.919632605952449
2.765,-0.938188715763949
2.77,-0.959212652700267
2.775,-0.982896423647867
2.78,-1.00945293281029
2.785,-1.03911940737551
2.79,-1.07216113337661
2.795,-1.10887542916583
2.8,-1.14959570057963
2.805,-1.19469528457314
2.81,-1.24459056686745
2.815,-1.29974250906258
2.82,-1.36065517610615
2.825,-1.427869023838
2.83,-1.50194546759773
2.835,-1.5834374672363
2.84,-1.67283841774346
2.845,-1.77049856133002
2.85,-1.87649489269363
2.855,-1.99043854335449
2.86,-2.1112062298215
2.865,-2.23659591391572
2.87,-2.3629411503711
2.875,-2.48478346856638
2.88,-2.59479462491006
2.885,-2.68421991761764
2.89,-2.74407995907938
2.895,-2.76709971292939
2.9,-2.7498396387337
2.905,-2.69409190649967
2.91,-2.60674024402317
2.915,-2.49805479282286
2.92,-2.37923595044771
2.925,-2.26025942885372
2.93,-2.14865092872582
2.935,-2.04921759550948
2.94,-1.96440771455522
2.945,-1.89492479943201
2.95,-1.84034009853249
2.955,-1.79958474708035
2.96,-1.77129607387378
2.965,-1.75403758687423
2.97,-1.7464255041247
2.975,-1.74719271730503
2.98,-1.75521398056466
2.985,-1.769508777021
2.99,-1.78923244576779
2.995,-1.81366199538298
3,-1.84218029437006
