"Freq [GHz]","dB(St(Driver_T1,Driver_T1)) []"
1,-1.40595490489233
1.005,-1.28771569758259
1.01,-1.18722381704571
1.015,-1.1022622945164
1.02,-1.03070913730406
1.025,-0.970603933005593
1.03,-0.920184910260731
1.035,-0.877903854683274
1.04,-0.842425546117783
1.045,-0.81261717325416
1.05,-0.78753187670069
1.055,-0.766389386800506
1.06,-0.748555750946687
1.065,-0.733523404765694
1.07,-0.720892310769212
1.075,-0.710352529569628
1.08,-0.701668362723932
1.085,-0.69466407687998
1.09,-0.689211156476085
1.095,-0.685217013328116
1.1,-0.682615087937819
1.105,-0.681356295550511
1.11,-0.681401789701523
1.115,-0.682717030042852
1.12,-0.685267145162195
1.125,-0.689013572963332
1.13,-0.693911941401495
1.135,-0.699911123453173
1.14,-0.70695336620103
1.145,-0.714975359751019
1.15,-0.723910082350188
1.155,-0.73368923778422
1.16,-0.744246092779725
1.165,-0.755518526862604
1.17,-0.767452124309648
1.175,-0.780003165357376
1.18,-0.793141408575347
1.185,-0.806852594729122
1.19,-0.821140641160211
1.195,-0.836029531904584
1.2,-0.851564940539164
1.205,-0.867815649139276
1.21,-0.884874847713512
1.215,-0.902861414775608
1.22,-0.92192129257534
1.225,-0.942229081520869
1.23,-0.963989989166998
1.235,-0.987442281402378
1.24,-1.01286039840431
1.245,-1.04055891615928
1.25,-1.07089755529898
1.255,-1.10428745992448
1.26,-1.14119898320923
1.265,-1.18217120967824
1.27,-1.22782338833433
1.275,-1.27886829368141
1.28,-1.33612717629924
1.285,-1.40054523610542
1.29,-1.4732051416155
1.295,-1.55533350154932
1.3,-1.64829051900396
1.305,-1.75352506597502
1.31,-1.87246460009419
1.315,-2.00629092815755
1.32,-2.15553194773266
1.325,-2.31939109566374
1.33,-2.49478114185444
1.335,-2.67520499973948
1.34,-2.8500105067915
1.345,-3.0050370463444
1.35,-3.12569535522818
1.355,-3.20220051694122
1.36,-3.23428806641997
1.365,-3.23191286317552
1.37,-3.21121040820315
1.375,-3.18871158216278
1.38,-3.17728576249105
1.385,-3.18492527805276
1.39,-3.21546212020314
1.395,-3.26993062264659
1.4,-3.34780098197845
1.405,-3.4478369520685
1.41,-3.56860375023894
1.415,-3.70873070467203
1.42,-3.86702570945316
1.425,-4.04250919585054
1.43,-4.23440878211161
1.435,-4.44213750441962
1.44,-4.66526745743638
1.445,-4.90350444848661
1.45,-5.15666596584163
1.455,-5.42466310310608
1.46,-5.70748630623508
1.465,-6.00519448729501
1.47,-6.31790694612599
1.475,-6.64579753394512
1.48,-6.98909051725704
1.485,-7.34805762239836
1.49,-7.72301574146649
1.495,-8.11432474577943
1.5,-8.52238477018429
1.505,-8.94763218382571
1.51,-9.39053322700429
1.515,-9.85157393584949
1.52,-10.3312444485963
1.525,-10.8300150218913
1.53,-11.348299991214
1.535,-11.8864043682113
1.54,-12.4444456417278
1.545,-13.0222405113992
1.55,-13.6191427021892
1.555,-14.2338139556913
1.56,-14.8639067787616
1.565,-15.5056371452583
1.57,-16.1532336890194
1.575,-16.7982774235807
1.58,-17.42900869502
1.585,-18.0297924630521
1.59,-18.5810956488388
1.595,-19.0604735144427
1.6,-19.4450092250318
1.605,-19.7151713589071
1.61,-19.8591420972764
1.615,-19.8758797045115
1.62,-19.7753889406078
1.625,-19.5760545396213
1.63,-19.3003949623768
1.635,-18.9710279706836
1.64,-18.6079637467147
1.645,-18.2273935920154
1.65,-17.8415766890599
1.655,-17.4593165226264
1.66,-17.0866439153861
1.665,-16.7274903829872
1.67,-16.3842595084987
1.675,-16.0582745690653
1.68,-15.7501129011299
1.685,-15.4598482134109
1.69,-15.1872226568787
1.695,-14.931767232249
1.7,-14.692885047927
1.705,-14.4699082412284
1.71,-14.2621364000754
1.715,-14.068862072686
1.72,-13.8893873096514
1.725,-13.723034006658
1.73,-13.5691499841192
1.735,-13.4271121553763
1.74,-13.2963277257837
1.745,-13.1762340788241
1.75,-13.0662978054147
1.755,-12.9660131928172
1.76,-12.8749003918985
1.765,-12.792503413279
1.77,-12.7183880553424
1.775,-12.6521398340365
1.78,-12.5933619615731
1.785,-12.5416734055476
1.79,-12.4967070495247
1.795,-12.4581079693006
1.8,-12.425531834783
1.805,-12.3986434449877
1.81,-12.3771154024723
1.815,-12.3606269332217
1.82,-12.3488628582452
1.825,-12.3415127237152
1.83,-12.3382700971567
1.835,-12.338832037829
1.84,-12.3428987498544
1.845,-12.3501734267138
1.85,-12.3603622952992
1.855,-12.3731748666693
1.86,-12.388324398882
1.865,-12.4055285746884
1.87,-12.4245103934076
1.875,-12.4449992719344
1.88,-12.4667323446039
1.885,-12.4894559456362
1.89,-12.5129272512705
1.895,-12.536916051724
1.9,-12.5612066160694
1.905,-12.5855996064136
1.91,-12.6099139917899
1.915,-12.633988907406
1.92,-12.6576854017614
1.925,-12.6808880130554
1.93,-12.7035061175631
1.935,-12.7254749964512
1.94,-12.746756573868
1.945,-12.7673397879326
1.95,-12.7872405671548
1.955,-12.8065013973464
1.96,-12.8251904776261
1.965,-12.8434004779629
1.97,-12.861246924103
1.975,-12.878866247972
1.98,-12.8964135520889
1.985,-12.9140601446848
1.99,-12.9319909077351
1.995,-12.950401562836
2,-12.9694958998195
2.005,-12.9754526396811
2.01,-12.9848136924038
2.015,-12.99818760097
2.02,-13.0162094448133
2.025,-13.0395377619601
2.03,-13.0688510603101
2.035,-13.1048438395898
2.04,-13.1482219918729
2.045,-13.1996973740107
2.05,-13.2599812431946
2.055,-13.3297761082213
2.06,-13.4097653619375
2.065,-13.500599809158
2.07,-13.6028798691209
2.075,-13.7171317877937
2.08,-13.8437756153889
2.085,-13.9830819615974
2.09,-14.1351136203075
2.095,-14.2996470765575
2.1,-14.4760677709648
2.105,-14.6632320649972
2.11,-14.8592886968031
2.115,-15.0614542449791
2.12,-15.2657426438342
2.125,-15.4666610648709
2.13,-15.656907215125
2.135,-15.8271391875935
2.14,-15.9659361789185
2.145,-16.0601115874726
2.15,-16.0955436199311
2.155,-16.0586009919713
2.16,-15.9380302510949
2.165,-15.7268876187998
2.17,-15.4239083771498
2.175,-15.0338003238095
2.18,-14.5663450422138
2.185,-14.034662468833
2.19,-13.4532442658591
2.195,-12.8362869404609
2.2,-12.1965899542863
2.205,-11.5450251699492
2.21,-10.8904389000871
2.215,-10.2398150817611
2.22,-9.59855843755448
2.225,-8.97080476811626
2.23,-8.35970765998563
2.235,-7.76767973771024
2.24,-7.19658337120334
2.245,-6.64787413586932
2.25,-6.12270371705952
2.255,-5.62198973979015
2.26,-5.14645962817895
2.265,-4.69667482407629
2.27,-4.27304087399958
2.275,-3.87580814880736
2.28,-3.50506729602946
2.285,-3.1607428980818
2.29,-2.84258817312276
2.295,-2.55018287961361
2.3,-2.28293587000245
2.305,-2.04009301144531
2.31,-1.82075050091248
2.315,-1.62387300465357
2.32,-1.44831559707921
2.325,-1.29284819231285
2.33,-1.15618105899882
2.335,-1.03699006732754
2.34,-0.933940500314279
2.345,-0.84570852339037
2.35,-0.770999701211102
2.355,-0.708564238882618
2.36,-0.657208878067063
2.365,-0.615805580126483
2.37,-0.583297272847145
2.375,-0.55870102677468
2.38,-0.541109069432848
2.385,-0.529688050851548
2.39,-0.523676952469207
2.395,-0.522383993224841
2.4,-0.525182839461375
2.405,-0.531508375158811
2.41,-0.540852240216991
2.415,-0.552758299671971
2.42,-0.566818167295804
2.425,-0.58266687354425
2.43,-0.599978740225487
2.435,-0.618463502139861
2.44,-0.63786269866127
2.445,-0.657946345093635
2.45,-0.678509883941205
2.455,-0.699371409328399
2.46,-0.720369153116076
2.465,-0.741359218292397
2.47,-0.762213543554657
2.475,-0.782818082307918
2.48,-0.80307117931706
2.485,-0.822882128749125
2.49,-0.842169898167708
2.495,-0.860862004064951
2.5,-0.87889352564355
2.505,-0.896206244720415
2.51,-0.912747900762435
2.515,-0.928471551144619
2.52,-0.943335027714343
2.525,-0.957300481632761
2.53,-0.9703340092319
2.535,-0.982405352264764
2.54,-0.993487666430958
2.545,-1.00355735242972
2.55,-1.01259394402734
2.555,-1.02058004773117
2.56,-1.02750132864614
2.565,-1.0333465369628
2.57,-1.03810756930589
2.575,-1.04177955887898
2.58,-1.04436098799941
2.585,-1.0458538162593
2.59,-1.046263617206
2.595,-1.04559971614765
2.6,-1.04387532149513
2.605,-1.04110764199068
2.61,-1.03731798228351
2.615,-1.03253180962585
2.62,-1.02677878500586
2.625,-1.02009275281999
2.63,-1.01251168422058
2.635,-1.00407757054242
2.64,-0.994836264686468
2.645,-0.984837269977914
2.65,-0.974133477762041
2.655,-0.962780856786134
2.66,-0.95083809916319
2.665,-0.938366229344574
2.67,-0.925428183966733
2.675,-0.912088371613094
2.68,-0.898412222390724
2.685,-0.884465737722198
2.69,-0.870315050879188
2.695,-0.85602600853693
2.7,-0.841663783032848
2.705,-0.827292524111469
2.71,-0.812975057790243
2.715,-0.798772638659387
2.72,-0.784744760510502
2.725,-0.770949028753954
2.73,-0.757441096711008
2.735,-0.744274666623724
2.74,-0.731501555174851
2.745,-0.719171822500684
2.75,-0.707333963150731
2.755,-0.696035157225771
2.76,-0.685321580029453
2.765,-0.675238769009914
2.77,-0.665832047556744
2.775,-0.657147006365933
2.78,-0.649230044607976
2.785,-0.642128975059987
2.79,-0.635893699734909
2.795,-0.630576965426989
2.8,-0.626235212088551
2.805,-0.622929531194786
2.81,-0.620726756427053
2.815,-0.619700715362664
2.82,-0.619933678737937
2.825,-0.6215180536996
2.83,-0.624558379874005
2.835,-0.629173702854029
2.84,-0.635500419879404
2.845,-0.643695718460953
2.85,-0.653941762323855
2.855,-0.666450822777739
2.86,-0.68147161071775
2.865,-0.699297139209825
2.87,-0.72027454460861
2.875,-0.744817422565396
2.88,-0.77342140300808
2.885,-0.806683905662378
2.89,-0.845329295826338
2.895,-0.890241007072808
2.9,-0.942502611036456
2.905,-1.00345026426562
2.91,-1.07473935263782
2.915,-1.15842824488991
2.92,-1.25708131078469
2.925,-1.37389057191254
2.93,-1.51280806432553
2.935,-1.67866422285249
2.94,-1.8772117272524
2.945,-2.11496194201479
2.95,-2.39854518105895
2.955,-2.73309821743381
2.96,-3.11888664259185
2.965,-3.54526724021512
2.97,-3.98210803482437
2.975,-4.37274620915265
2.98,-4.63968519126518
2.985,-4.71455641561412
2.99,-4.57977933110427
2.995,-4.28122240505128
3,-3.89686256137549
