"Freq [GHz]","dB(St(Driver_T1,Driver_T1)) []"
1,-2.32258631398508
1.005,-2.09212474392687
1.01,-1.89091855421134
1.015,-1.71507725105074
1.02,-1.56121222397398
1.025,-1.42639746756125
1.03,-1.30812293726198
1.035,-1.20424601186993
1.04,-1.11294434647675
1.045,-1.03267193567492
1.05,-0.962119255805065
1.055,-0.90017776160734
1.06,-0.845908662893505
1.065,-0.798515718672229
1.07,-0.757321701351415
1.075,-0.72174816179851
1.08,-0.691298139676342
1.085,-0.665541494348322
1.09,-0.644102568072322
1.095,-0.626649928110671
1.1,-0.612887963975421
1.105,-0.602550138813743
1.11,-0.595393710031403
1.115,-0.591195744820938
1.12,-0.589750263075417
1.125,-0.590866345216991
1.13,-0.594367047640237
1.135,-0.600088975307618
1.14,-0.60788237058153
1.145,-0.617611590112939
1.15,-0.629155857467174
1.155,-0.642410197644974
1.16,-0.657286479940121
1.165,-0.673714516713228
1.17,-0.691643186715994
1.175,-0.711041571772533
1.18,-0.731900114340752
1.185,-0.754231820427707
1.19,-0.778073547481641
1.195,-0.80348743042834
1.2,-0.830562511350145
1.205,-0.85941664992938
1.21,-0.89019880324298
1.215,-0.923091775295329
1.22,-0.958315549121301
1.225,-0.996131327328914
1.23,-1.03684641986683
1.235,-1.08082012874696
1.24,-1.12847078462202
1.245,-1.1802840823781
1.25,-1.23682282945712
1.255,-1.29873813907984
1.26,-1.36678193230703
1.265,-1.44182029219199
1.27,-1.52484662918243
1.275,-1.61699258432064
1.28,-1.71953281164947
1.285,-1.83387675610331
1.29,-1.96153552722589
1.295,-2.1040438873571
1.3,-2.26280490708028
1.305,-2.43880699700614
1.31,-2.63214103447564
1.315,-2.84122759555382
1.32,-3.06167714159273
1.325,-3.28481011773786
1.33,-3.49616164112646
1.335,-3.67486619961715
1.34,-3.79546587521196
1.345,-3.83355305287594
1.35,-3.77451493887613
1.355,-3.62100815040884
1.36,-3.39364430272053
1.365,-3.1238060509651
1.37,-2.8434466928198
1.375,-2.57766605925078
1.38,-2.3421724903277
1.385,-2.14433351144011
1.39,-1.98565004362669
1.395,-1.86418616217531
1.4,-1.77637424868852
1.405,-1.71815041964904
1.41,-1.68557667135143
1.415,-1.67512961641131
1.42,-1.68379595507023
1.425,-1.70906705322636
1.43,-1.74888756407425
1.435,-1.80158822168112
1.44,-1.86581799610358
1.445,-1.94048240100803
1.45,-2.02469030648275
1.455,-2.11770942895597
1.46,-2.21892971417531
1.465,-2.32783350496206
1.47,-2.4439713661032
1.475,-2.5669425509497
1.48,-2.69637925007721
1.485,-2.83193391982644
1.49,-2.97326912982107
1.495,-3.12004948789646
1.5,-3.27193529818222
1.505,-3.42857768568204
1.51,-3.58961498162707
1.515,-3.75467021115029
1.52,-3.92334956106559
1.525,-4.0952417328912
1.53,-4.26991810640849
1.535,-4.44693365325595
1.54,-4.62582854922985
1.545,-4.80613043875169
1.55,-4.9873573058265
1.555,-5.16902090313669
1.56,-5.35063068504449
1.565,-5.53169818163974
1.57,-5.71174174011276
1.575,-5.89029154737336
1.58,-6.06689483488859
1.585,-6.24112115425914
1.59,-6.41256760132914
1.595,-6.58086385889921
1.6,-6.74567692461417
1.605,-6.90671539235631
1.61,-7.06373316320722
1.615,-7.21653247602103
1.62,-7.36496616764065
1.625,-7.50893909799732
1.63,-7.64840870448151
1.635,-7.78338468135919
1.64,-7.91392781170631
1.645,-8.04014800934205
1.65,-8.16220165472112
1.655,-8.28028833016052
1.66,-8.39464707506551
1.665,-8.50555229044204
1.67,-8.61330942394952
1.675,-8.71825056255393
1.68,-8.82073005038425
1.685,-8.92112023583099
1.69,-9.01980743554046
1.695,-9.11718818504605
1.7,-9.21366582751193
1.705,-9.30964747445291
1.71,-9.40554135610624
1.715,-9.50175456490419
1.72,-9.59869118353091
1.725,-9.69675077945209
1.73,-9.79632724051162
1.735,-9.89780792101931
1.74,-10.0015730644324
1.745,-10.1079954669521
1.75,-10.2174403457757
1.755,-10.3302653760357
1.76,-10.4468208613064
1.765,-10.5674500036617
1.77,-10.692489240377
1.775,-10.8222686152217
1.78,-10.9571121526676
1.785,-11.0973382030277
1.79,-11.2432597253071
1.795,-11.3951844721735
1.8,-11.5534150376582
1.805,-11.7182487226885
1.81,-11.8899771659473
1.815,-12.068885677416
1.82,-12.2552521987314
1.825,-12.4493457975091
1.83,-12.6514245812556
1.835,-12.8617328894452
1.84,-13.0804975886924
1.845,-13.3079232544612
1.85,-13.5441859721765
1.855,-13.7894254297683
1.86,-14.0437349018564
1.865,-14.3071486431466
1.87,-14.5796261171513
1.875,-14.8610323912542
1.88,-15.151113940984
1.885,-15.4494690443912
1.89,-15.7555119441806
1.895,-16.0684300628093
1.9,-16.3871338530445
1.905,-16.7101994663293
1.91,-17.035805473082
1.915,-17.3616665491165
1.92,-17.6849695180058
1.925,-18.0023204865266
1.93,-18.3097158648152
1.935,-18.6025541995274
1.94,-18.8757086418195
1.945,-19.1236793924835
1.95,-19.3408389950203
1.955,-19.5217688246663
1.96,-19.6616628572544
1.965,-19.7567493147213
1.97,-19.8046610493624
1.975,-19.8046820259931
1.98,-19.7578161510737
1.985,-19.6666625720329
1.99,-19.5351253733967
1.995,-19.368019059448
2,-19.1706436159142
2.005,-18.9483938977422
2.01,-18.7064456339925
2.015,-18.4495350318273
2.02,-18.1818286518174
2.025,-17.9068681089142
2.03,-17.6275696553574
2.035,-17.3462594492089
2.04,-17.0647287550268
2.045,-16.7842975525484
2.05,-16.5058789392508
2.055,-16.230039833938
2.06,-15.9570557437585
2.065,-15.6869588590345
2.07,-15.4195796632349
2.075,-15.1545827580524
2.08,-14.8914978425065
2.085,-14.6297468498999
2.09,-14.368668204618
2.095,-14.1075390549075
2.1,-13.8455961936469
2.105,-13.5820562118952
2.11,-13.3161352491412
2.115,-13.0470685170785
2.12,-12.7741295880251
2.125,-12.4966492640164
2.13,-12.2140336890722
2.135,-11.9257812472391
2.14,-11.6314977142502
2.145,-11.3309091100772
2.15,-11.0238717376126
2.155,-10.7103789873194
2.16,-10.3905646300323
2.165,-10.0647024949718
2.17,-9.73320261778145
2.175,-9.39660412284926
2.18,-9.055565255855
2.185,-8.71085109161555
2.19,-8.36331950073386
2.195,-8.01390596546057
2.2,-7.66360779640331
2.205,-7.31346822813641
2.21,-6.96456077698372
2.215,-6.61797414239699
2.22,-6.27479783705619
2.225,-5.93610864989492
2.23,-5.60295798695345
2.235,-5.27636009988448
2.24,-4.95728120029071
2.245,-4.64662946631975
2.25,-4.34524597051586
2.255,-4.05389658809697
2.26,-3.7732649754602
2.265,-3.50394673317599
2.27,-3.24644488046958
2.275,-3.00116676544567
2.28,-2.76842251545688
2.285,-2.54842509571752
2.29,-2.341291994376
2.295,-2.14704849338286
2.3,-1.96563242236662
2.305,-1.79690023340844
2.31,-1.64063418369528
2.315,-1.49655037495497
2.32,-1.36430737615454
2.325,-1.24351515014174
2.33,-1.13374401495399
2.335,-1.03453339417706
2.34,-0.945400144792207
2.345,-0.865846291693068
2.35,-0.795366041785299
2.355,-0.733451993971605
2.36,-0.67960050169664
2.365,-0.633316180160905
2.37,-0.594115579671606
2.375,-0.561530069437758
2.38,-0.535107992557905
2.385,-0.514416163524409
2.39,-0.499040785072568
2.395,-0.488587862555817
2.4,-0.48268319217422
2.405,-0.4809719952132
2.41,-0.483118264754016
2.415,-0.488803884763351
2.42,-0.497727574591872
2.425,-0.509603705121613
2.43,-0.524161026396139
2.435,-0.54114134075006
2.44,-0.560298150349003
2.445,-0.581395303722906
2.45,-0.604205662342809
2.455,-0.628509805537516
2.46,-0.654094790031957
2.465,-0.680752979056954
2.47,-0.708280955253875
2.475,-0.736478531400012
2.48,-0.765147873208228
2.485,-0.794092749008176
2.49,-0.823117921865511
2.495,-0.8520287005094
2.5,-0.880630666153571
2.505,-0.908729592742169
2.51,-0.936131578128004
2.515,-0.962643402993334
2.52,-0.988073132724475
2.525,-1.01223097474229
2.53,-1.03493039975902
2.535,-1.05598952991978
2.54,-1.07523278968279
2.545,-1.09249280658266
2.55,-1.10761253879946
2.555,-1.12044759497152
2.56,-1.13086869933737
2.565,-1.13876424266219
2.57,-1.14404284722559
2.575,-1.14663586331298
2.58,-1.14649970612533
2.585,-1.14361793678237
2.59,-1.13800299005135
2.595,-1.12969745530351
2.6,-1.11877482642381
2.605,-1.10533965103494
2.61,-1.08952702907938
2.615,-1.07150143470244
2.62,-1.05145486226362
2.625,-1.02960432559289
2.63,-1.00618876752156
2.635,-0.981465462426463
2.64,-0.955706016325039
2.645,-0.92919208552827
2.65,-0.902210944993551
2.655,-0.875051040811784
2.66,-0.847997657741951
2.665,-0.821328822890013
2.67,-0.795311551470476
2.675,-0.770198521350762
2.68,-0.746225241201816
2.685,-0.72360775405169
2.69,-0.702540895268423
2.695,-0.683197102712019
2.7,-0.665725757968691
2.705,-0.65025302190079
2.71,-0.636882115602632
2.715,-0.625693989363336
2.72,-0.616748317273478
2.725,-0.610084753365477
2.73,-0.605724386200368
2.735,-0.603671332087103
2.74,-0.603914412095404
2.745,-0.606428864164549
2.75,-0.611178048427255
2.755,-0.618115110935932
2.76,-0.627184577946149
2.765,-0.6383238595139
2.77,-0.651464647203506
2.775,-0.666534196061221
2.78,-0.683456485623376
2.785,-0.702153258581375
2.79,-0.722544938844522
2.795,-0.744551433173462
2.8,-0.768092822370552
2.805,-0.793089949284846
2.81,-0.819464911698931
2.815,-0.84714146859207
2.82,-0.876045368391625
2.825,-0.906104607702584
2.83,-0.937249628699839
2.835,-0.969413462933304
2.84,-1.00253182877348
2.845,-1.03654318915076
2.85,-1.07138877564183
2.855,-1.10701258435655
2.86,-1.14336134848887
2.865,-1.18038449183516
2.87,-1.21803406705309
2.875,-1.25626468194546
2.88,-1.29503341660333
2.885,-1.33429973383803
2.89,-1.37402538496448
2.895,-1.41417431267524
2.9,-1.45471255245626
2.905,-1.49560813374417
2.91,-1.53683098180487
2.915,-1.5783528211241
2.92,-1.62014708093606
2.925,-1.6621888033775
2.93,-1.70445455463501
2.935,-1.74692233935395
2.94,-1.78957151849257
2.945,-1.83238273073629
2.95,-1.87533781752801
2.955,-1.91841975172473
2.96,-1.96161256985184
2.965,-2.00490130789661
2.97,-2.04827194055859
2.975,-2.09171132385632
2.98,-2.13520714097657
2.985,-2.17874785124185
2.99,-2.22232264206667
2.995,-2.26592138376793
3,-2.30953458709399
