"Freq [GHz]","dB(St(Driver_T1,Driver_T1)) []"
1,-1.33693150986883
1.005,-1.241931650284
1.01,-1.15860300110803
1.015,-1.08557687775067
1.02,-1.02165040239917
1.025,-0.965770811985806
1.03,-0.917019896606753
1.035,-0.874599034603055
1.04,-0.837815100102219
1.045,-0.806067383371492
1.05,-0.778835572455773
1.055,-0.755668786364426
1.06,-0.736175617273878
1.065,-0.72001512509169
1.07,-0.706888726818007
1.075,-0.696532930954796
1.08,-0.688712879973828
1.085,-0.683216678292708
1.09,-0.67985049646272
1.095,-0.678434451889386
1.1,-0.67879927043999
1.105,-0.680783730466716
1.11,-0.684232880670377
1.115,-0.688997006422238
1.12,-0.694931297250775
1.125,-0.701896143687069
1.13,-0.709757967654388
1.135,-0.718390470358829
1.14,-0.727676168124484
1.145,-0.737508081933083
1.15,-0.747791451523858
1.155,-0.758445359427118
1.16,-0.769404172682074
1.165,-0.780618737764129
1.17,-0.792057294503479
1.175,-0.803706104622658
1.18,-0.815569817504691
1.185,-0.827671618203534
1.19,-0.840053219658671
1.195,-0.852774772542978
1.2,-0.8659147728189
1.205,-0.879570050058697
1.21,-0.893855920336913
1.215,-0.9089065875561
1.22,-0.92487587789714
1.225,-0.941938395022878
1.23,-0.960291189831849
1.235,-0.980156048820535
1.24,-1.00178251998206
1.245,-1.02545181460699
1.25,-1.0514817463421
1.255,-1.08023289254469
1.26,-1.11211618099077
1.265,-1.14760210439737
1.27,-1.18723172071928
1.275,-1.23162946072928
1.28,-1.28151744638948
1.285,-1.33773035961669
1.29,-1.40122859512589
1.295,-1.47310496236382
1.3,-1.55457568857002
1.305,-1.64693852237402
1.31,-1.751467419449
1.315,-1.86919280226499
1.32,-2.0004898120321
1.325,-2.14437639062086
1.33,-2.29744937063663
1.335,-2.45255409393141
1.34,-2.59772441301728
1.345,-2.71662685411367
1.35,-2.79205423683624
1.355,-2.81255595207586
1.36,-2.77883321475161
1.365,-2.70471723896615
1.37,-2.61137477670608
1.375,-2.51922978886407
1.38,-2.44281310798446
1.385,-2.38984777601221
1.39,-2.36283814908523
1.395,-2.3611877847287
1.4,-2.3828591911211
1.405,-2.42539139976475
1.41,-2.48642062074806
1.415,-2.56389593852754
1.42,-2.65613352117374
1.425,-2.76179628514822
1.43,-2.8798455754465
1.435,-3.00948739802518
1.44,-3.1501228627819
1.445,-3.30130611465104
1.45,-3.46271012128714
1.455,-3.63409951772511
1.46,-3.81530936148009
1.465,-4.00622866132383
1.47,-4.2067876856181
1.475,-4.41694822970116
1.48,-4.63669618407287
1.485,-4.86603588157651
1.49,-5.10498581028831
1.495,-5.35357536206578
1.5,-5.61184234872798
1.505,-5.87983106259698
1.51,-6.15759068893267
1.515,-6.44517389715765
1.52,-6.74263544744443
1.525,-7.05003065028701
1.53,-7.36741350956074
1.535,-7.69483436422619
1.54,-8.03233681974004
1.545,-8.37995372649104
1.55,-8.73770191798798
1.555,-9.10557536474137
1.56,-9.48353632954443
1.565,-9.87150402546066
1.57,-10.2693401798268
1.575,-10.6768307990708
1.58,-11.0936633177608
1.585,-11.5193982163341
1.59,-11.95343413306
1.595,-12.3949655235798
1.6,-12.842932110086
1.605,-13.2959598235779
1.61,-13.7522938340412
1.615,-14.2097257874216
1.62,-14.6655197499875
1.625,-15.1163447804428
1.63,-15.5582265021919
1.635,-15.9865351025192
1.64,-16.3960316731774
1.645,-16.7809965559631
1.65,-17.135459278609
1.655,-17.4535366326949
1.66,-17.7298622488799
1.665,-17.960060958007
1.67,-18.1411935442328
1.675,-18.272085315932
1.68,-18.3534656937279
1.685,-18.3878857481573
1.69,-18.3794331117172
1.695,-18.3333086192934
1.7,-18.2553503406153
1.705,-18.1515847431731
1.71,-18.0278598873143
1.715,-17.8895849961401
1.72,-17.7415751513754
1.725,-17.5879840944206
1.73,-17.4323019083628
1.735,-17.2773948718785
1.74,-17.1255687804483
1.745,-16.9786420734289
1.75,-16.8380197686518
1.755,-16.7047628953309
1.76,-16.5796507415719
1.765,-16.4632349453153
1.77,-16.3558854815974
1.775,-16.2578291483214
1.78,-16.1691813980199
1.785,-16.0899724272847
1.79,-16.0201684006851
1.795,-15.9596886033864
1.8,-15.9084192163395
1.805,-15.8662243060999
1.81,-15.8329545259522
1.815,-15.8084539392175
1.82,-15.7925653001052
1.825,-15.7851340617826
1.83,-15.7860113246459
1.835,-15.795055889197
1.84,-15.8121355367043
1.845,-15.8371276263435
1.85,-15.8699190693659
1.855,-15.9104057187252
1.86,-15.9584911963884
1.865,-16.0140851701762
1.87,-16.0771010874508
1.875,-16.1474533742612
1.88,-16.2250541156068
1.885,-16.3098092450449
1.89,-16.4016142894769
1.895,-16.5003497367928
1.9,-16.6058761189705
1.905,-16.7180289295992
1.91,-16.8366135206792
1.915,-16.9614001466638
1.92,-17.0921193416812
1.925,-17.2284578264004
1.93,-17.3700551421578
1.935,-17.5165012004029
1.94,-17.6673349147738
1.945,-17.8220440516596
1.95,-17.9800663944354
1.955,-18.1407922690273
1.96,-18.3035684270929
1.965,-18.4677032311849
1.97,-18.6324730370473
1.975,-18.7971296244836
1.98,-18.960908492145
1.985,-19.1230378044124
1.99,-19.2827477607023
1.995,-19.4392801487447
2,-19.591897842857
2.005,-19.6873762519525
2.01,-19.7830661409371
2.015,-19.8789054724707
2.02,-19.9747632266607
2.025,-20.0704038739194
2.03,-20.165442029442
2.035,-20.2592860498406
2.04,-20.3510697707848
2.045,-20.4395724882293
2.05,-20.523128903781
2.055,-20.599533390843
2.06,-20.6659468883213
2.065,-20.7188201248752
2.07,-20.7538533924346
2.075,-20.766019499491
2.08,-20.7496802652924
2.085,-20.6988239374434
2.09,-20.6074366659285
2.095,-20.4699930816936
2.1,-20.2820123270315
2.105,-20.0405882921597
2.11,-19.7447843769443
2.115,-19.3957991455495
2.12,-18.9968607024636
2.125,-18.5528763910707
2.13,-18.0699221540352
2.135,-17.5546808491194
2.14,-17.0139274325009
2.145,-16.4541241297284
2.15,-15.8811489523918
2.155,-15.3001498276545
2.16,-14.7154992563107
2.165,-14.1308192284311
2.17,-13.5490487146054
2.175,-12.9725321260311
2.18,-12.4031137655584
2.185,-11.842228971687
2.19,-11.2909868979578
2.195,-10.7502427313651
2.2,-10.2206589153861
2.205,-9.70275592083189
2.21,-9.19695356989051
2.215,-8.70360406647235
2.22,-8.22301785752369
2.225,-7.75548333471784
2.23,-7.30128123881968
2.235,-6.86069448224717
2.24,-6.43401397679323
2.245,-6.02154095224808
2.25,-5.62358618157078
2.255,-5.24046648968178
2.26,-4.87249891378946
2.265,-4.51999289921006
2.27,-4.18324094968515
2.275,-3.86250819717191
2.28,-3.55802140337779
2.285,-3.26995794348513
2.29,-2.99843534127856
2.295,-2.74350191545815
2.3,-2.5051290533593
2.305,-2.28320554873427
2.31,-2.07753432754708
2.315,-1.88783174747509
2.32,-1.71372950442857
2.325,-1.5547790266088
2.33,-1.41045809740772
2.335,-1.28017933500284
2.34,-1.16330007755247
2.345,-1.05913318270136
2.35,-0.966958248269219
2.355,-0.886032793040937
2.36,-0.81560299509854
2.365,-0.754913661187379
2.37,-0.70321718507969
2.375,-0.659781337623694
2.38,-0.623895809662083
2.385,-0.594877496800783
2.39,-0.57207456963691
2.395,-0.554869413782068
2.4,-0.542680551452005
2.405,-0.534963672048595
2.41,-0.531211905045979
2.415,-0.530955466786797
2.42,-0.5337608055991
2.425,-0.539229358831464
2.43,-0.546996022535607
2.435,-0.556727420830419
2.44,-0.568120048369061
2.445,-0.580898346430091
2.45,-0.594812761360629
2.455,-0.609637823627347
2.46,-0.625170276656522
2.465,-0.641227276949113
2.47,-0.657644680558697
2.475,-0.674275425801164
2.48,-0.690988017887654
2.485,-0.707665117895905
2.49,-0.724202235981342
2.495,-0.740506526852075
2.5,-0.75649568417531
2.505,-0.772096929647243
2.51,-0.787246091856874
2.515,-0.801886769733597
2.52,-0.815969575227771
2.525,-0.829451449881698
2.53,-0.842295050065944
2.535,-0.854468195847594
2.54,-0.865943378698263
2.545,-0.876697323518298
2.55,-0.886710600733511
2.555,-0.895967284499886
2.56,-0.904454653319039
2.565,-0.912162929617349
2.57,-0.919085055067857
2.575,-0.925216498634109
2.58,-0.930555094486484
2.585,-0.935100907084161
2.59,-0.938856120829912
2.595,-0.941824951792724
2.6,-0.944013579057245
2.605,-0.94543009330348
2.61,-0.946084460250194
2.615,-0.945988496616463
2.62,-0.945155856274948
2.625,-0.943602024295159
2.63,-0.941344316612736
2.635,-0.938401883119613
2.64,-0.934795712057955
2.645,-0.930548633724527
2.65,-0.925685321657986
2.655,-0.920232289694099
2.66,-0.914217883535719
2.665,-0.907672265795332
2.67,-0.900627393827379
2.675,-0.893116990069008
2.68,-0.885176505045721
2.685,-0.876843073662819
2.69,-0.868155465883122
2.695,-0.859154033375295
2.7,-0.849880654192041
2.705,-0.840378677993134
2.71,-0.830692874754476
2.715,-0.820869390295432
2.72,-0.810955712309222
2.725,-0.801000650897493
2.73,-0.79105433789768
2.735,-0.78116824956377
2.74,-0.771395257436453
2.745,-0.761789712544731
2.75,-0.752407568448892
2.755,-0.743306549106246
2.76,-0.734546368162416
2.765,-0.726189007099909
2.77,-0.718299060779042
2.775,-0.71094416036444
2.78,-0.704195485540867
2.785,-0.698128380404736
2.79,-0.692823090621691
2.795,-0.688365643556031
2.8,-0.684848898347813
2.805,-0.682373799653922
2.81,-0.681050877394221
2.815,-0.68100204589856
2.82,-0.682362770058174
2.825,-0.685284684411072
2.83,-0.689938774826006
2.835,-0.696519263328624
2.84,-0.705248376973592
2.845,-0.716382234663344
2.85,-0.73021815571158
2.855,-0.747103786503915
2.86,-0.76744856456294
2.865,-0.791738203017454
2.87,-0.820553096507992
2.875,-0.854591839377165
2.88,-0.894701429921566
2.885,-0.94191623420894
2.89,-0.997508420064451
2.895,-1.06305334909913
2.9,-1.14051428180536
2.905,-1.23235152380193
2.91,-1.34166132406571
2.915,-1.47234823256612
2.92,-1.62932851434413
2.925,-1.81874563762982
2.93,-2.04813917184281
2.935,-2.32642001910902
2.94,-2.66331958741916
2.945,-3.06762208958017
2.95,-3.54289448497583
2.955,-4.07879992359019
2.96,-4.63677598723583
2.965,-5.13503032630239
2.97,-5.45367211832818
2.975,-5.48806547094841
2.98,-5.22629595338288
2.985,-4.76038372704611
2.99,-4.21527985966405
2.995,-3.68408504748688
3,-3.21385287594776
