"Freq [GHz]","dB(St(Driver_T1,Driver_T1)) []"
1,-1.27698217019293
1.005,-1.18953159265156
1.01,-1.10945959251573
1.015,-1.03664123214966
1.02,-0.97090236981353
1.025,-0.912023657317047
1.03,-0.859745490434524
1.035,-0.81377375073319
1.04,-0.773786147177508
1.045,-0.739438945383421
1.05,-0.710373862683515
1.055,-0.686224908508805
1.06,-0.666624961604241
1.065,-0.651211897268352
1.07,-0.639634107602326
1.075,-0.63155529369951
1.08,-0.626658448523045
1.085,-0.624648990464683
1.09,-0.625257047811639
1.095,-0.628238931307869
1.1,-0.633377863765895
1.105,-0.640484060841741
1.11,-0.649394274796034
1.115,-0.659970923124817
1.12,-0.672100926752096
1.125,-0.685694378942421
1.13,-0.700683157504827
1.135,-0.717019580726584
1.14,-0.734675193364653
1.145,-0.753639754422121
1.15,-0.77392048464867
1.155,-0.795541619783203
1.16,-0.818544306286381
1.165,-0.842986870220647
1.17,-0.868945487338721
1.175,-0.896515283495589
1.18,-0.925811899264567
1.185,-0.956973561138901
1.19,-0.990163713968874
1.195,-1.02557428538497
1.2,-1.06342967298082
1.205,-1.10399156903186
1.21,-1.14756476539445
1.215,-1.19450411240497
1.22,-1.24522283856761
1.225,-1.30020246919965
1.23,-1.36000460511446
1.235,-1.42528482361105
1.24,-1.4968089188268
1.245,-1.57547156194399
1.25,-1.66231715319477
1.255,-1.7585620141696
1.26,-1.86561588007869
1.265,-1.98509846383125
1.27,-2.11884294063556
1.275,-2.26887132888282
1.28,-2.43731502034384
1.285,-2.62623446067965
1.29,-2.8372622826592
1.295,-3.07095357415228
1.3,-3.325685851924
1.305,-3.59595212545918
1.31,-3.87004672027432
1.315,-4.12767094546202
1.32,-4.33907819273219
1.325,-4.4686096147495
1.33,-4.48485623337448
1.335,-4.3747477519132
1.34,-4.15230509456201
1.345,-3.85409860109359
1.35,-3.5245538236056
1.355,-3.20184621152047
1.36,-2.9112608285168
1.365,-2.66544534314979
1.37,-2.46786110230357
1.375,-2.31654106512559
1.38,-2.2069327324996
1.385,-2.13367070968653
1.39,-2.0915270055269
1.395,-2.07583773916524
1.4,-2.08263549872726
1.405,-2.10863413963308
1.41,-2.1511502667999
1.415,-2.20800570795052
1.42,-2.27743217348968
1.425,-2.35798685194739
1.43,-2.44848142863704
1.435,-2.54792412703403
1.44,-2.65547322892101
1.445,-2.77040023642564
1.45,-2.89206092644423
1.455,-3.01987277881377
1.46,-3.15329752124923
1.465,-3.29182777753154
1.47,-3.43497701323447
1.475,-3.58227214262141
1.48,-3.73324829462143
1.485,-3.88744534044555
1.49,-4.04440586602166
1.495,-4.2036743339792
1.5,-4.36479722652762
1.505,-4.52732399554291
1.51,-4.69080867209626
1.515,-4.85481200656205
1.52,-5.01890402394256
1.525,-5.1826668884653
1.53,-5.34569797795733
1.535,-5.50761307296113
1.54,-5.66804956890881
1.545,-5.82666962271949
1.55,-5.98316314864763
1.555,-6.1372505827059
1.56,-6.28868534100396
1.565,-6.4372559052104
1.57,-6.58278747820754
1.575,-6.72514316480417
1.58,-6.86422464584874
1.585,-6.99997232879905
1.59,-7.13236497317137
1.595,-7.26141880462774
1.6,-7.38718614604904
1.605,-7.50975360709421
1.61,-7.62923988486645
1.615,-7.74579323693446
1.62,-7.85958869380247
1.625,-7.97082508088752
1.63,-8.07972192022273
1.635,-8.18651627970632
1.64,-8.29145963312314
1.645,-8.39481478783464
1.65,-8.49685292946246
1.655,-8.5978508245799
1.66,-8.69808821384216
1.665,-8.79784541954058
1.67,-8.8974011835917
1.675,-8.9970307447198
1.68,-9.09700415723137
1.685,-9.19758484839951
1.69,-9.29902840710543
1.695,-9.40158159298944
1.7,-9.50548155288031
1.705,-9.61095522960176
1.71,-9.71821894728793
1.715,-9.82747815695953
1.72,-9.93892732620327
1.725,-10.0527499572532
1.73,-10.1691187184966
1.735,-10.2881956753347
1.74,-10.4101326073565
1.745,-10.5350713998642
1.75,-10.6631444988942
1.755,-10.7944754199613
1.76,-10.9291793018033
1.765,-11.0673634973992
1.77,-11.2091281954702
1.775,-11.3545670665457
1.78,-11.5037679284876
1.785,-11.6568134271137
1.79,-11.8137817282598
1.795,-11.9747472182627
1.8,-12.1397812104478
1.805,-12.308952655773
1.81,-12.4823288563049
1.815,-12.6599761807156
1.82,-12.8419607814636
1.825,-13.0283493137901
1.83,-13.2192096571074
1.835,-13.4146116397934
1.84,-13.6146277688324
1.845,-13.8193339661564
1.85,-14.0288103139564
1.855,-14.2431418116299
1.86,-14.4624191474285
1.865,-14.686739488252
1.87,-14.9162072914025
1.875,-15.1509351424607
1.88,-15.3910446237621
1.885,-15.6366672182174
1.89,-15.8879452534216
1.895,-16.1450328910954
1.9,-16.408097166857
1.905,-16.6773190850637
1.91,-16.9528947729197
1.915,-17.2350366970705
1.92,-17.523974944353
1.925,-17.8199585659792
1.93,-18.1232569808892
1.935,-18.43416142884
1.94,-18.7529864563587
1.945,-19.0800714080762
1.95,-19.4157818809028
1.955,-19.7605110772226
1.96,-20.1146809632631
1.965,-20.4787430964832
1.97,-20.8531789262074
1.975,-21.2384992877028
1.98,-21.6352426913701
1.985,-22.0439718414545
1.99,-22.4652675825348
1.995,-22.8997191388013
2,-23.3479090416339
2.005,-23.5930759858983
2.01,-23.8135512184316
2.015,-23.9958535573199
2.02,-24.1241700313152
2.025,-24.1814445414298
2.03,-24.1513297173182
2.035,-24.0207886097106
2.04,-23.7826727594421
2.045,-23.4373355865243
2.05,-22.9925869741043
2.055,-22.4620099887961
2.06,-21.8623607942321
2.065,-21.2109897180416
2.07,-20.5239343938472
2.075,-19.8148758562141
2.08,-19.0948169761373
2.085,-18.3722224235905
2.09,-17.6533831214192
2.095,-16.9428443997677
2.1,-16.2438100138446
2.105,-15.5584848536066
2.11,-14.8883481165659
2.115,-14.2343625251911
2.12,-13.5971301870725
2.125,-12.9770062910754
2.13,-12.3741805566629
2.135,-11.7887345232443
2.14,-11.2206809812307
2.145,-10.6699903303666
2.15,-10.1366074495936
2.155,-9.62046174763377
2.16,-9.1214723823266
2.165,-8.63955013578134
2.17,-8.17459706501323
2.175,-7.72650477659657
2.18,-7.29515197054706
2.185,-6.88040174225189
2.19,-6.48209900702978
2.195,-6.1000683098584
2.2,-5.73411219665292
2.205,-5.38401024962863
2.21,-5.0495188260277
2.215,-4.73037148633023
2.22,-4.42628005509842
2.225,-4.13693622507939
2.23,-3.86201359318783
2.235,-3.60117000519124
2.24,-3.35405008354897
2.245,-3.12028781867468
2.25,-2.89950911631129
2.255,-2.69133421091932
2.26,-2.49537987511872
2.265,-2.3112613765112
2.27,-2.1385941540763
2.275,-1.97699520550685
2.28,-1.82608419338378
2.285,-1.68548429139678
2.29,-1.55482280161699
2.295,-1.43373158012814
2.3,-1.32184731134944
2.305,-1.2188116715298
2.31,-1.12427141965532
2.315,-1.03787844994124
2.32,-0.959289834735375
2.325,-0.888167880571345
2.33,-0.824180213756157
2.335,-0.766999905659188
2.34,-0.716305642112336
2.345,-0.671781936268823
2.35,-0.633119380054754
2.355,-0.60001492605985
2.36,-0.572172189362732
2.365,-0.549301757329864
2.37,-0.53112149478176
2.375,-0.517356831974977
2.38,-0.507741023476961
2.385,-0.502015367081928
2.39,-0.499929373301867
2.395,-0.501240877551284
2.4,-0.505716088826219
2.405,-0.513129570375114
2.41,-0.523264149508778
2.415,-0.53591075525612
2.42,-0.550868184017515
2.425,-0.567942794691248
2.43,-0.586948135957216
2.435,-0.607704509515214
2.44,-0.630038474119711
2.445,-0.653782296263253
2.45,-0.678773354373409
2.455,-0.704853504440816
2.46,-0.731868416123506
2.465,-0.759666889604504
2.47,-0.78810016483595
2.475,-0.817021236291894
2.48,-0.846284187964723
2.485,-0.875743565047761
2.49,-0.905253800495671
2.495,-0.93466871636271
2.5,-0.963841121371775
2.505,-0.992622527418893
2.51,-1.02086300848622
2.515,-1.04841122551292
2.52,-1.0751146399265
2.525,-1.10081993652726
2.53,-1.12537367301872
2.535,-1.14862316849365
2.54,-1.1704176364959
2.545,-1.19060955985679
2.55,-1.20905629446542
2.555,-1.22562187775073
2.56,-1.2401790053944
2.565,-1.25261112731056
2.57,-1.26281460204421
2.575,-1.27070083840755
2.58,-1.27619834539361
2.585,-1.27925460714428
2.59,-1.27983769981065
2.595,-1.2779375720683
2.6,-1.27356692101162
2.605,-1.26676160988817
2.61,-1.25758059293113
2.615,-1.24610533427393
2.62,-1.23243873112836
2.625,-1.21670357443681
2.63,-1.19904060141486
2.635,-1.17960621229054
2.64,-1.1585699369406
2.645,-1.13611174527578
2.65,-1.11241929787123
2.655,-1.08768523069284
2.66,-1.062104560476
2.665,-1.03587228632549
2.67,-1.00918124957686
2.675,-0.982220299101137
2.68,-0.95517279420405
2.685,-0.928215463075831
2.69,-0.90151762218929
2.695,-0.875240751685127
2.7,-0.849538413955198
2.705,-0.824556497455512
2.71,-0.800433765199043
2.715,-0.777302687216028
2.72,-0.755290538265763
2.725,-0.734520745936934
2.73,-0.715114479667273
2.735,-0.69719247783442
2.74,-0.680877117608797
2.745,-0.666294740390609
2.75,-0.653578253995249
2.755,-0.642870040791102
2.76,-0.634325207966662
2.765,-0.628115220808064
2.77,-0.624431960375478
2.775,-0.623492240188321
2.78,-0.625542797553444
2.785,-0.63086573629279
2.79,-0.639784326927245
2.795,-0.652668949731017
2.8,-0.669942768513107
2.805,-0.69208640948358
2.81,-0.719640435911818
2.815,-0.753203684839503
2.82,-0.793424484762999
2.825,-0.84098032958502
2.83,-0.896539732162073
2.835,-0.960697882653731
2.84,-1.03387594024768
2.845,-1.11617356052772
2.85,-1.20716800331472
2.855,-1.30566460213296
2.86,-1.40942678831746
2.865,-1.51495103398058
2.87,-1.61739585687005
2.875,-1.71080045173085
2.88,-1.78869677203772
2.885,-1.84509458564804
2.89,-1.87562285296495
2.895,-1.87845071089984
2.9,-1.85462819865792
2.905,-1.80771868422237
2.91,-1.74290420925314
2.915,-1.66592789357946
2.92,-1.58220712291682
2.925,-1.49628499608633
2.93,-1.41161890021097
2.935,-1.33061143166089
2.94,-1.25477161433898
2.945,-1.18491926110489
2.95,-1.12138036875301
2.955,-1.06414998984551
2.96,-1.01301691782768
2.965,-0.967653532702035
2.97,-0.927677485799528
2.975,-0.892692228179444
2.98,-0.862312426263044
2.985,-0.836178991923377
2.99,-0.813967210632662
2.995,-0.795390432819078
3,-0.780201020825313
