"Freq [GHz]","dB(St(Driver_T1,Driver_T1)) []"
1,-1.37374404155388
1.005,-1.23696795127412
1.01,-1.11896310821279
1.015,-1.01969114698249
1.02,-0.937899142975092
1.025,-0.87154730221467
1.03,-0.818236631730854
1.035,-0.775553333380412
1.04,-0.74129821712893
1.045,-0.713607729616427
1.05,-0.690992090238369
1.055,-0.672319683569258
1.06,-0.656772312480609
1.065,-0.643788779364035
1.07,-0.633007635614901
1.075,-0.624214962803439
1.08,-0.617299780081167
1.085,-0.612217744064837
1.09,-0.608962785988225
1.095,-0.607545860718094
1.1,-0.607979817092217
1.105,-0.610269387019406
1.11,-0.614405347201025
1.115,-0.620361990011761
1.12,-0.628097130936799
1.125,-0.637553972877993
1.13,-0.64866424120742
1.135,-0.661352097200096
1.14,-0.675538430339184
1.145,-0.691145219998996
1.15,-0.708099741697568
1.155,-0.726338470028614
1.16,-0.74581059760559
1.165,-0.766481145765384
1.17,-0.788333688182648
1.175,-0.811372743571438
1.18,-0.835625919592494
1.185,-0.86114590867359
1.19,-0.888012449638386
1.195,-0.916334378813361
1.2,-0.946251902523623
1.205,-0.977939231268022
1.21,-1.01160772575929
1.215,-1.04750971740629
1.22,-1.08594318112116
1.225,-1.12725745609495
1.23,-1.17186022847604
1.235,-1.22022600423251
1.24,-1.27290630190528
1.245,-1.33054176651853
1.25,-1.39387631658054
1.255,-1.4637732300981
1.26,-1.54123265379912
1.265,-1.62740920834659
1.27,-1.72362685929085
1.275,-1.83138551324345
1.28,-1.95234902304854
1.285,-2.08829607750529
1.29,-2.24100180644934
1.295,-2.41199641434984
1.3,-2.60211631888762
1.305,-2.81072754249444
1.31,-3.03448370605981
1.315,-3.26555046912416
1.32,-3.48953100580419
1.325,-3.68405331053189
1.33,-3.82005322274444
1.335,-3.86813417091019
1.34,-3.80982879611656
1.345,-3.64798491344109
1.35,-3.40791810452778
1.355,-3.12748085843361
1.36,-2.84346991387653
1.365,-2.58273304530372
1.37,-2.36018696950773
1.375,-2.18116553634308
1.38,-2.04495138784003
1.385,-1.94775385057344
1.39,-1.88467095266762
1.395,-1.85077925114339
1.4,-1.84164154167032
1.405,-1.85347985483357
1.41,-1.88317844206396
1.415,-1.92821263324781
1.42,-1.98655413749141
1.425,-2.05657692797213
1.43,-2.1369736583163
1.435,-2.22668547993877
1.44,-2.32484490636962
1.445,-2.43073011688945
1.45,-2.54372878297727
1.455,-2.66330960585633
1.46,-2.78900000902671
1.465,-2.92036871373443
1.47,-3.05701218627912
1.475,-3.1985441665229
1.48,-3.34458766507177
1.485,-3.49476895674502
1.49,-3.64871320641062
1.495,-3.80604144626197
1.5,-3.96636868655587
1.505,-4.12930298913771
1.51,-4.29444536822249
1.515,-4.46139040854302
1.52,-4.62972750914821
1.525,-4.79904267337728
1.53,-4.96892077303735
1.535,-5.13894821853177
1.54,-5.30871596742645
1.545,-5.47782280244382
1.55,-5.64587880684484
1.555,-5.81250896131166
1.56,-5.9773567825151
1.565,-6.14008792026831
1.57,-6.30039362824157
1.575,-6.45799402329429
1.58,-6.61264105108891
1.585,-6.76412108116549
1.59,-6.91225706321922
1.595,-7.05691018786095
1.6,-7.19798100931467
1.605,-7.33541000374984
1.61,-7.46917755449815
1.615,-7.59930337336734
1.62,-7.72584538468562
1.625,-7.84889811467135
1.63,-7.96859064240158
1.635,-8.08508417941423
1.64,-8.19856935240347
1.645,-8.30926326738059
1.65,-8.41740643414009
1.655,-8.5232596271724
1.66,-8.62710075374959
1.665,-8.72922179234479
1.67,-8.82992585545291
1.675,-8.92952442088665
1.68,-9.02833476531458
1.685,-9.12667762370331
1.69,-9.22487508882322
1.695,-9.32324875640106
1.7,-9.42211811403515
1.705,-9.52179916574711
1.71,-9.6226032790318
1.715,-9.72483623745158
1.72,-9.82879747909108
1.725,-9.93477949942178
1.73,-10.0430673961777
1.735,-10.1539385335515
1.74,-10.2676623032449
1.745,-10.3844999605074
1.75,-10.5047045141418
1.755,-10.6285206504513
1.76,-10.7561846721466
1.765,-10.8879244342628
1.77,-11.023959260092
1.775,-11.1644998209856
1.78,-11.3097479645912
1.785,-11.4598964766544
1.79,-11.6151287619347
1.795,-11.7756184300684
1.8,-11.9415287723991
1.805,-12.1130121159075
1.81,-12.290209040483
1.815,-12.4732474459569
1.82,-12.662241455651
1.825,-12.8572901438213
1.83,-13.0584760754335
1.835,-13.2658636483833
1.84,-13.4794972307944
1.845,-13.6993990896408
1.85,-13.9255671119434
1.855,-14.1579723265083
1.86,-14.3965562429185
1.865,-14.6412280355821
1.87,-14.8918616142976
1.875,-15.1482926391173
1.88,-15.410315556094
1.885,-15.6776807512308
1.89,-15.9500919414773
1.895,-16.2272039419753
1.9,-16.508620964977
1.905,-16.7938956136232
1.91,-17.0825287272829
1.915,-17.373970206977
1.92,-17.6676208905839
1.925,-17.9628354479712
1.93,-18.2589261154785
1.935,-18.5551668778574
1.94,-18.850797427126
1.945,-19.1450258801924
1.95,-19.4370288265783
1.955,-19.7259468208705
1.96,-20.0108729625792
1.965,-20.2908317686481
1.97,-20.5647452168285
1.975,-20.8313827358407
1.98,-21.0892922133845
1.985,-21.3367100456111
1.99,-21.5714502417295
1.995,-21.7907761432008
2,-21.9912640309002
2.005,-22.1686762892004
2.01,-22.3178728179182
2.015,-22.4328015574076
2.02,-22.506618302031
2.025,-22.5319851275775
2.03,-22.5015763220812
2.035,-22.4087739832421
2.04,-22.2484669694715
2.045,-22.0177995170354
2.05,-21.7166864417316
2.055,-21.3479501735629
2.06,-20.917037067427
2.065,-20.4313927104789
2.07,-19.8996609527364
2.075,-19.3308866652365
2.08,-18.7338567823132
2.085,-18.1166430854372
2.09,-17.4863473378555
2.095,-16.8490114724807
2.1,-16.2096424822927
2.105,-15.5723050692581
2.11,-14.9402458907957
2.115,-14.3160251556929
2.12,-13.7016412950987
2.125,-13.0986415951591
2.13,-12.5082162687583
2.135,-11.9312760913468
2.14,-11.368515065371
2.145,-10.820460113163
2.15,-10.2875098806532
2.155,-9.76996458856047
2.16,-9.26804862745444
2.165,-8.78192733213688
2.17,-8.31171912621554
2.175,-7.85750401512198
2.18,-7.41932922904368
2.185,-6.99721267409304
2.19,-6.59114473577799
2.195,-6.20108888781705
2.2,-5.82698148608612
2.205,-5.46873106714102
2.21,-5.12621741931589
2.215,-4.7992906487465
2.22,-4.48777042062199
2.225,-4.19144551617045
2.23,-3.91007380774844
2.235,-3.64338271791847
2.24,-3.39107019404456
2.245,-3.15280619844737
2.25,-2.92823468638985
2.255,-2.71697602091094
2.26,-2.51862975540396
2.265,-2.33277770219127
2.27,-2.15898719820834
2.275,-1.99681447698726
2.28,-1.84580805885382
2.285,-1.70551207784473
2.29,-1.5754694733989
2.295,-1.45522498642
2.3,-1.34432791192023
2.305,-1.24233457329657
2.31,-1.14881049566627
2.315,-1.06333226705427
2.32,-0.985489086206495
2.325,-0.9148840041798
2.33,-0.851134873549609
2.335,-0.793875024106843
2.34,-0.742753687396358
2.345,-0.697436194549822
2.35,-0.657603972783089
2.355,-0.622954365877177
2.36,-0.593200303148868
2.365,-0.568069840040704
2.37,-0.547305591691769
2.375,-0.53066407884483
2.38,-0.517915003323472
2.385,-0.508840468178097
2.39,-0.503234155529353
2.395,-0.500900473190255
2.4,-0.501653679366584
2.405,-0.505316993147986
2.41,-0.511721697127241
2.415,-0.520706237334524
2.42,-0.532115324751619
2.425,-0.545799041979039
2.43,-0.561611958168795
2.435,-0.579412255102092
2.44,-0.599060867285137
2.445,-0.62042063915366
2.45,-0.643355502912933
2.455,-0.667729681194611
2.46,-0.693406919572091
2.465,-0.72024975503701
2.47,-0.748118827783049
2.475,-0.776872245045916
2.48,-0.80636500727826
2.485,-0.836448508549995
2.49,-0.866970124695915
2.495,-0.897772904307123
2.5,-0.928695379080794
2.505,-0.959571511186009
2.51,-0.990230796031884
2.515,-1.02049853897864
2.52,-1.05019632393996
2.525,-1.07914269031169
2.53,-1.10715403204731
2.535,-1.13404572884159
2.54,-1.15963351416301
2.545,-1.18373507824659
2.55,-1.20617189615625
2.555,-1.22677126179463
2.56,-1.24536849854372
2.565,-1.26180930647379
2.57,-1.27595219529075
2.575,-1.28767094207564
2.58,-1.29685700413399
2.585,-1.30342181071275
2.59,-1.30729885369645
2.595,-1.30844549730326
2.6,-1.3068444307325
2.605,-1.30250469584357
2.61,-1.29546223418053
2.615,-1.28577991353484
2.62,-1.27354701299759
2.625,-1.25887816604205
2.63,-1.24191178237474
2.635,-1.22280798975703
2.64,-1.20174615547269
2.645,-1.1789220624552
2.65,-1.1545448264288
2.655,-1.12883364721773
2.66,-1.10201448943958
2.665,-1.07431678530064
2.67,-1.04597024561969
2.675,-1.01720185524044
2.68,-0.988233116530249
2.685,-0.959277590639194
2.69,-0.93053877154929
2.695,-0.902208313503753
2.7,-0.874464618898817
2.705,-0.847471781676587
2.71,-0.821378871050504
2.715,-0.796319532225365
2.72,-0.772411874688748
2.725,-0.749758614577681
2.73,-0.728447435387985
2.735,-0.708551530669591
2.74,-0.690130293059106
2.745,-0.673230115771224
2.75,-0.657885275217899
2.755,-0.644118866506358
2.76,-0.631943766950665
2.765,-0.621363606239276
2.77,-0.612373725371378
2.775,-0.604962109799444
2.78,-0.599110285307065
2.785,-0.594794167955295
2.79,-0.591984861917223
2.795,-0.590649401178298
2.8,-0.590751432911454
2.805,-0.592251841857807
2.81,-0.595109316276716
2.815,-0.599280857002189
2.82,-0.604722231884384
2.825,-0.611388378436268
2.83,-0.619233757876515
2.835,-0.628212663987196
2.84,-0.638279490315766
2.845,-0.649388959267996
2.85,-0.661496316581681
2.855,-0.67455749455839
2.86,-0.688529247277374
2.865,-0.703369260833757
2.87,-0.719036241443185
2.875,-0.735489984045596
2.88,-0.752691423827965
2.885,-0.770602672874841
2.89,-0.789187043950707
2.895,-0.808409063221572
2.9,-0.828234473537296
2.905,-0.848630229722291
2.91,-0.869564487160452
2.915,-0.891006584811365
2.92,-0.912927023658729
2.925,-0.93529744146807
2.93,-0.958090584618727
2.935,-0.981280277674443
2.94,-1.0048413912665
2.945,-1.02874980878274
2.95,-1.05298239228436
2.955,-1.07751694800888
2.96,-1.10233219176203
2.965,-1.12740771445191
2.97,-1.15272394797609
2.975,-1.17826213163468
2.98,-1.20400427920976
2.985,-1.2299331468234
2.99,-1.25603220166213
2.995,-1.28228559163474
3,-1.30867811601235
