"Freq [GHz]","dB(St11) []"
6,-0.184163820071921
6.05,-0.187689121364752
6.1,-0.191152354259778
6.15,-0.194565558029415
6.2,-0.197940218441058
6.25,-0.201287287393569
6.3,-0.204617203226254
6.35,-0.207939911667698
6.4,-0.21126488739318
6.45,-0.214601156161032
6.5,-0.217957317500275
6.55,-0.221341567923827
6.6,-0.224761724644073
6.65,-0.228225249770057
6.7,-0.231739274968548
6.75,-0.235310626574304
6.8,-0.23894585113827
6.85,-0.24265124140619
6.9,-0.246432862724192
6.95,-0.250296579872136
7,-0.254248084330346
7.05,-0.258292921990357
7.1,-0.262436521325888
7.15,-0.266684222045974
7.2,-0.271041304258871
7.25,-0.275513018181962
7.3,-0.28010461444059
7.35,-0.284821375006716
7.4,-0.289668644837098
7.45,-0.294651864280365
7.5,-0.299776602332468
7.55,-0.305048590831729
7.6,-0.31047375969672
7.65,-0.316058273324116
7.7,-0.321808568278354
7.75,-0.327731392421492
7.8,-0.333833845649689
7.85,-0.340123422422701
7.9,-0.346608056295002
7.95,-0.353296166681557
8,-0.36019670811862
8.05,-0.367319222310177
8.1,-0.374673893284542
8.15,-0.382271606023283
8.2,-0.390124008966886
8.25,-0.398243580848815
8.3,-0.406643702362552
8.35,-0.415338733225787
8.4,-0.424344095272642
8.45,-0.433676362280084
8.5,-0.443353357319574
8.55,-0.453394258520297
8.6,-0.463819714238509
8.65,-0.474651968749211
8.7,-0.485914999714339
8.75,-0.497634668837644
8.8,-0.509838887292999
8.85,-0.522557797713275
8.9,-0.535823974753663
8.95,-0.549672646500976
9,-0.564141939292477
9.05,-0.579273148839141
9.1,-0.595111040924663
9.15,-0.611704185377972
9.2,-0.629105327501167
9.25,-0.647371801683151
9.3,-0.666565992550276
9.35,-0.686755849707145
9.4,-0.708015462912973
9.45,-0.730425705430306
9.5,-0.754074954283168
9.55,-0.779059897279019
9.6,-0.805486437890114
9.65,-0.833470710459439
9.7,-0.863140219692474
9.75,-0.894635120011139
9.8,-0.928109652059353
9.85,-0.963733755423955
9.9,-1.00169487840729
9.95,-1.04220000736076
10,-1.08547793951161
10.05,-1.13178182416637
10.1,-1.18139199732896
10.15,-1.2346191336638
10.2,-1.29180773670064
10.25,-1.35333998228132
10.3,-1.41963992017866
10.35,-1.49117802274802
10.4,-1.56847604487654
10.45,-1.65211212289942
10.5,-1.7427259868035
10.55,-1.84102408347663
10.6,-1.94778430027521
10.65,-2.06385982611823
10.7,-2.19018147626818
10.75,-2.32775751685229
10.8,-2.47766963040112
10.85,-2.64106313257035
10.9,-2.81912884556958
10.95,-3.01307311588792
11,-3.22407129852862
11.05,-3.453198607285
11.1,-3.70133060386479
11.15,-3.96900396000057
11.2,-4.25622694578976
11.25,-4.56222935753922
11.3,-4.88514515174194
11.35,-5.22163104347458
11.4,-5.56644539397529
11.45,-5.91204911669088
11.5,-6.24834633043857
11.55,-6.56274780935953
11.6,-6.84078131292068
11.65,-7.06742537904228
11.7,-7.22913874185928
11.75,-7.31620385213915
11.8,-7.32466980956267
11.85,-7.25714927160712
11.9,-7.12213602668817
11.95,-6.9321452879989
12,-6.70140869490019
12.05,-6.44384533264608
12.1,-6.17170602357915
12.15,-5.89493239615881
12.2,-5.62106167633683
12.25,-5.35545587570019
12.3,-5.10167295167998
12.35,-4.86186238833199
12.4,-4.63712375438643
12.45,-4.427804276543
12.5,-4.23373243945812
12.55,-4.05439441334973
12.6,-3.88906344513319
12.65,-3.73689243628655
12.7,-3.59697864590416
12.75,-3.46840778078023
12.8,-3.35028312014613
12.85,-3.24174394471849
12.9,-3.14197643531797
12.95,-3.05021935384318
13,-2.96576617709735
13.05,-2.88796487794532
13.1,-2.81621619962791
13.15,-2.749971015983
13.2,-2.68872718796794
13.25,-2.63202619634435
13.3,-2.57944973755428
13.35,-2.53061640425561
13.4,-2.48517852606238
13.45,-2.44281921418939
13.5,-2.40324963190356
13.55,-2.36620649802432
13.6,-2.33144982109687
13.65,-2.29876085577825
13.7,-2.26794026934953
13.75,-2.23880650432668
13.8,-2.21119432234063
13.85,-2.18495351440454
13.9,-2.1599477631109
13.95,-2.13605364301033
14,-2.11315974628617
14.05,-2.09116592176281
14.1,-2.06998261620967
14.15,-2.04953030778766
14.2,-2.02973902230405
14.25,-2.01054792367939
14.3,-1.99190497067968
14.35,-1.9737666325225
14.4,-1.95609765642806
14.45,-1.93887088055818
14.5,-1.92206708606821
14.55,-1.90567488219759
14.6,-1.88969061844634
14.65,-1.87411831793558
14.7,-1.85896962603755
14.75,-1.84426376829218
14.8,-1.83002751151402
14.85,-1.81629512184582
14.9,-1.80310831334699
14.95,-1.79051618053068
15,-1.77857510810017
15.05,-1.76734865100271
15.1,-1.75690737783728
15.15,-1.74732867064724
15.2,-1.73869647422229
15.25,-1.73110098825434
15.3,-1.72463829606442
15.35,-1.7194099241682
15.4,-1.71552232770046
15.45,-1.7130862976921
15.5,-1.7122162874037
15.55,-1.71302965637143
15.6,-1.71564583251383
15.65,-1.72018539456517
15.7,-1.72676907921708
15.75,-1.73551671962129
15.8,-1.74654612427624
15.85,-1.7599719077174
15.9,-1.77590428676965
15.95,-1.79444785830477
16,-1.81570037637588
16.05,-1.83975154816874
16.1,-1.86668186931876
16.15,-1.89656151970236
16.2,-1.92944934075317
16.25,-1.9653919146294
16.3,-2.00442276415291
16.35,-2.04656169037048
16.4,-2.09181426190443
16.45,-2.14017146705207
16.5,-2.1916095359793
16.55,-2.2460899364785
16.6,-2.30355954278956
16.65,-2.36395097308995
16.7,-2.42718308762191
16.75,-2.4931616362115
16.8,-2.56178004130156
16.85,-2.63292030070457
16.9,-2.70645399319955
16.95,-2.78224336994745
17,-2.86014251556792
17.05,-2.93999856469344
17.1,-3.02165296299537
17.15,-3.10494276620062
17.2,-3.18970197669783
17.25,-3.27576292528947
17.3,-3.3629577159719
17.35,-3.45111976505864
17.4,-3.54008548360131
17.45,-3.62969617553292
17.5,-3.71980025563992
17.55,-3.8102559348589
17.6,-3.90093458062008
17.65,-3.9917250445757
17.7,-4.08253937022182
17.75,-4.17332046521255
17.8,-4.26405257224961
17.85,-4.35477573512447
17.9,-4.44560598769891
17.95,-4.53676377481164
18,-4.62861426471084
