"Freq [GHz]","dB(GainTotal) [] - Phi='0deg' Theta='0deg'"
6,1.49915603296989
6.05,1.60360953008554
6.1,1.70626075472717
6.15,1.80703813727706
6.2,1.90588771834976
6.25,2.00277180254385
6.3,2.09766789473288
6.35,2.19056725693612
6.4,2.28147372706291
6.45,2.37040241450271
6.5,2.45737838080283
6.55,2.54243553564226
6.6,2.6256153902008
6.65,2.70696603618482
6.7,2.7865411012053
6.75,2.86439887700133
6.8,2.94060135418361
6.85,3.01521354268646
6.9,3.0883025835866
6.95,3.15993734595823
7,3.23018760865226
7.05,3.29912360709255
7.1,3.36681565396901
7.15,3.43333365295278
7.2,3.49874662975305
7.25,3.56312276246884
7.3,3.6265286865573
7.35,3.68902960917449
7.4,3.75068886274122
7.45,3.81156790058435
7.5,3.87172616946423
7.55,3.93122089261214
7.6,3.99010707983179
7.65,4.04843740767645
7.7,4.10626228932673
7.75,4.16362955194376
7.8,4.220584890547
7.85,4.27717134273446
7.9,4.33342974016766
7.95,4.38939844099508
8,4.44511335530124
8.05,4.50060821452727
8.1,4.55591429956333
8.15,4.6110606404682
8.2,4.66607398106431
8.25,4.72097893002447
8.3,4.77579777955447
8.35,4.83055077741611
8.4,4.88525599320345
8.45,4.93992941773826
8.5,4.99458497717984
8.55,5.04923459714814
8.6,5.1038882076369
8.65,5.15855366848247
8.7,5.21323703560683
8.75,5.2679422657517
8.8,5.3226715242451
8.85,5.37742490126457
8.9,5.43220067843725
8.95,5.4869951791233
9,5.54180279285375
9.05,5.59661600567468
9.1,5.65142526914803
9.15,5.70621914165234
9.2,5.76098411934972
9.25,5.81570472969097
9.3,5.8703633718314
9.35,5.92494042247198
9.4,5.97941411114968
9.45,6.03376057104453
9.5,6.0879536187527
9.55,6.14196495464742
9.6,6.19576396920522
9.65,6.24931778660454
9.7,6.30259124647505
9.75,6.35554680444225
9.8,6.40814462616831
9.85,6.4603425810227
9.9,6.51209611152133
9.95,6.5633585006674
10,6.61408074166306
10.05,6.66421168242438
10.1,6.71369802802203
10.15,6.76248455601918
10.2,6.8105141892146
10.25,6.85772803639873
10.3,6.90406573260143
10.35,6.94946538591997
10.4,6.99386387291644
10.45,7.03719685033782
10.5,7.07939890854458
10.55,7.1204036655938
10.6,7.16014353584509
10.65,7.19854983526177
10.7,7.23555241568818
10.75,7.27107934033084
10.8,7.3050562975668
10.85,7.33740611100465
10.9,7.36804783112043
10.95,7.39689602788894
11,7.42385981396669
11.05,7.44884217216629
11.1,7.47173929369575
11.15,7.49244034488185
11.2,7.51082759502862
11.25,7.52677722742771
11.3,7.54016080638152
11.35,7.55084736250831
11.4,7.55870606835569
11.45,7.56360968732301
11.5,7.56543792578481
11.55,7.56408103395767
11.6,7.55944294956888
11.65,7.55144390560345
11.7,7.54002226826725
11.75,7.52513526790961
11.8,7.50675898951851
11.85,7.48488748442745
11.9,7.45953128463444
11.95,7.43071575609988
12,7.39847921785505
12.05,7.3628713809053
12.1,7.32395205627245
12.15,7.28179028528761
12.2,7.23646396197665
12.25,7.18805967466842
12.3,7.13667293833559
12.35,7.08240850417406
12.4,7.02538080601972
12.45,6.96571438825209
12.5,6.90354408539617
12.55,6.83901521402791
12.6,6.77228352719587
12.65,6.70351478400409
12.7,6.63288427334466
12.75,6.5605761079645
12.8,6.48678193958652
12.85,6.41169998078091
12.9,6.33553311954125
12.95,6.25848753189213
13,6.18077050657686
13.05,6.10258845314375
13.1,6.0241446312722
13.15,5.94563687535714
13.2,5.86725528750034
13.25,5.78918008066182
13.3,5.71157933536842
13.35,5.63460727616616
13.4,5.55840265256654
13.45,5.48308769945038
13.5,5.40876730092494
13.55,5.33552904051867
13.6,5.26344358727886
13.65,5.19256542473805
13.7,5.12293474151605
13.75,5.05457897755928
13.8,4.98751561728167
13.85,4.92175454456167
13.9,4.85730113898341
13.95,4.79415878753109
14,4.73233213583819
14.05,4.67182932728028
14.1,4.61266426105966
14.15,4.55485859606281
14.2,4.49844279738116
14.25,4.44345693296722
14.3,4.38995065127545
14.35,4.33798278454333
14.4,4.28761978274628
14.45,4.23893397828199
14.5,4.19200115287516
14.55,4.14689733086034
14.6,4.10369519050755
14.65,4.06246008713116
14.7,4.02324555236909
14.75,3.9860887064568
14.8,3.95100545448993
14.85,3.91798558314272
14.9,3.88698820488217
14.95,3.85793715814557
15,3.83071700498028
15.05,3.80516970691064
15.1,3.78109187816609
15.15,3.7582330239332
15.2,3.73629468579804
15.25,3.71493095256801
15.3,3.69375028686303
15.35,3.6723181941856
15.4,3.65016183493065
15.45,3.62677571443045
15.5,3.60162843643533
15.55,3.57417092463839
15.6,3.54384550263886
15.65,3.51009537048337
15.7,3.47237487532065
15.75,3.43015989816431
15.8,3.38295744951279
15.85,3.33031553461831
15.9,3.27183144452646
15.95,3.20715904143846
16,3.13601495836223
16.05,3.05818269408471
16.1,2.97351551771976
16.15,2.88193780201257
16.2,2.78344439612046
16.25,2.67809957575755
16.3,2.56603413884443
16.35,2.44744211609669
16.4,2.32257712711483
16.45,2.19174808730918
16.5,2.05531548407468
16.55,1.91368716605259
16.6,1.76731532904632
16.65,1.61669322826411
16.7,1.46235219118325
16.75,1.30485977579434
16.8,1.14481722254335
16.85,0.982857489893718
16.9,0.819643226206868
16.95,0.655864105009791
17,0.492233813664853
17.05,0.329486364773134
17.1,0.168371496245944
17.15,0.00964894435809814
17.2,-0.145918277613428
17.25,-0.297571543565026
17.3,-0.444565906579898
17.35,-0.586179360440409
17.4,-0.721723402926498
17.45,-0.850553494789945
17.5,-0.972079937452258
17.55,-1.08577715090821
17.6,-1.19119302393015
17.65,-1.28795581708937
17.7,-1.37577982449338
17.75,-1.45446825093099
17.8,-1.52391445488714
17.85,-1.5841000332755
17.9,-1.63509125944347
17.95,-1.67703263206844
18,-1.71014006838551
