"Freq [GHz]","dB(St11) []"
6,-0.314345803155142
6.05,-0.321029843782931
6.1,-0.327691122437842
6.15,-0.334357787374805
6.2,-0.341056584330272
6.25,-0.347812887024188
6.3,-0.354650735157483
6.35,-0.361592879699154
6.4,-0.368660835235136
6.45,-0.37587493913514
6.5,-0.383254417283092
6.55,-0.390817456112442
6.6,-0.398581280689049
6.65,-0.406562238592104
6.7,-0.414775889356834
6.75,-0.423237099262677
6.8,-0.43196014127575
6.85,-0.440958799986197
6.9,-0.450246481417919
6.95,-0.459836327631421
7,-0.469741336089192
7.05,-0.479974483807639
7.1,-0.490548856380172
7.15,-0.501477782022449
7.2,-0.512774970863722
7.25,-0.524454659787494
7.3,-0.536531763211205
7.35,-0.549022030288606
7.4,-0.561942209120774
7.45,-0.575310218673006
7.5,-0.589145329216474
7.55,-0.603468352246273
7.6,-0.61830184097336
7.65,-0.633670302647823
7.7,-0.649600424148049
7.75,-0.66612131246531
7.8,-0.683264751930643
7.85,-0.70106548027192
7.9,-0.719561485858298
7.95,-0.738794328790465
8,-0.758809488832441
8.05,-0.77965674355986
8.1,-0.801390580526133
8.15,-0.824070647728437
8.2,-0.847762247197537
8.25,-0.872536877147732
8.3,-0.898472828814846
8.35,-0.925655844892432
8.4,-0.954179847360686
8.45,-0.984147743502718
8.5,-1.01567232003312
8.55,-1.04887723654079
8.6,-1.08389813088919
8.65,-1.12088385084067
8.7,-1.15999782799904
8.75,-1.20141961221384
8.8,-1.24534658688438
8.85,-1.29199588815827
8.9,-1.34160655385669
8.95,-1.39444193108859
9,-1.45079237494305
9.05,-1.51097827436646
9.1,-1.57535344531526
9.15,-1.64430893547438
9.2,-1.7182772891626
9.25,-1.79773732537025
9.3,-1.88321948598497
9.35,-1.97531181484796
9.4,-2.07466663089811
9.45,-2.18200795965688
9.5,-2.29813978575177
9.55,-2.42395518373364
9.6,-2.56044637317147
9.65,-2.70871572406982
9.7,-2.86998770582571
9.75,-3.04562172084539
9.8,-3.23712568274164
9.85,-3.4461700732818
9.9,-3.67460201722354
9.95,-3.92445860959366
10,-4.19797824931562
10.05,-4.49760796517479
10.1,-4.8260034773903
10.15,-5.18601670251258
10.2,-5.58066204088657
10.25,-6.01304717116542
10.3,-6.48624469148758
10.35,-7.00306532523259
10.4,-7.56566780887775
10.45,-8.17490013579312
10.5,-8.82920789810581
10.55,-9.52287518022614
10.6,-10.2433287804167
10.65,-10.9673935716567
10.7,-11.6571056145646
10.75,-12.2574928887207
10.8,-12.7013425293185
10.85,-12.9259579862655
10.9,-12.8983122761554
10.95,-12.6315680985503
11,-12.177969130743
11.05,-11.6048602890725
11.1,-10.973050929397
11.15,-10.3272663707409
11.2,-9.69611676750136
11.25,-9.09588959668028
11.3,-8.53463415659052
11.35,-8.01531257274339
11.4,-7.53792115770679
11.45,-7.10082419931638
11.5,-6.70156076259648
11.55,-6.33732001955966
11.6,-6.00521439325227
11.65,-5.70243133603666
11.7,-5.42631296441386
11.75,-5.17439319168239
11.8,-4.94441013791767
11.85,-4.73430447325486
11.9,-4.54221007797203
11.95,-4.36644083383393
12,-4.20547580998364
12.05,-4.0579441661346
12.1,-3.92261052384915
12.15,-3.79836120872866
12.2,-3.68419155545984
12.25,-3.57919434118037
12.3,-3.48254933833792
12.35,-3.39351393627146
12.4,-3.31141475880661
12.45,-3.23564019551612
12.5,-3.16563376209994
12.55,-3.10088820752813
12.6,-3.04094029023595
12.65,-2.98536615154951
12.7,-2.9337772209022
12.75,-2.88581659381488
12.8,-2.84115582978605
12.85,-2.79949212302214
12.9,-2.76054580425821
12.95,-2.72405813674984
13,-2.689789373863
13.05,-2.65751704956869
13.1,-2.62703447659599
13.15,-2.59814943004316
13.2,-2.57068299692859
13.25,-2.54446857451537
13.3,-2.51935100229842
13.35,-2.49518581433033
13.4,-2.471838600109
13.45,-2.44918446358046
13.5,-2.42710757094448
13.55,-2.4055007789078
13.6,-2.38426533582494
13.65,-2.36331064881384
13.7,-2.34255411044513
13.75,-2.32192097898883
13.8,-2.30134430647122
13.85,-2.28076490895489
13.9,-2.26013137351486
13.95,-2.23940009635114
14,-2.21853534636058
14.05,-2.19750934829853
14.1,-2.17630237940239
14.15,-2.15490287303744
14.2,-2.13330752257315
14.25,-2.11152137832223
14.3,-2.08955792999305
14.35,-2.06743916674115
14.4,-2.04519560658095
14.45,-2.0228662866634
14.5,-2.00049870576868
14.55,-1.97814871033788
14.6,-1.9558803155089
14.65,-1.93376545296274
14.7,-1.91188363796148
14.75,-1.89032154879792
14.8,-1.86917251300493
14.85,-1.84853589610709
14.9,-1.82851639044538
14.95,-1.80922320366181
15,-1.7907691487738
15.05,-1.77326964035895
15.1,-1.75684160415168
15.15,-1.74160231024831
15.2,-1.7276681430308
15.25,-1.71515332374032
15.3,-1.70416860423926
15.35,-1.69481995276331
15.4,-1.68720725425704
15.45,-1.68142304908751
15.5,-1.67755133443837
15.55,-1.67566645242603
15.6,-1.67583208790645
15.65,-1.67810039705162
15.7,-1.68251128510767
15.75,-1.68909184838151
15.8,-1.6978559915614
15.85,-1.70880422711294
15.9,-1.72192365888455
15.95,-1.73718814739957
16,-1.75455864980053
16.05,-1.77398372322983
16.1,-1.79540017674377
16.15,-1.81873385379564
16.2,-1.8439005249831
16.25,-1.8708068691893
16.3,-1.89935152046667
16.35,-1.92942615799057
16.4,-1.96091661708412
16.45,-1.99370400059777
16.5,-2.02766577170789
16.55,-2.06267681135979
16.6,-2.09861042599978
16.65,-2.1353392937996
16.7,-2.17273634016719
16.75,-2.21067553586554
16.8,-2.24903261344936
16.85,-2.28768569991633
16.9,-2.3265158654156
16.95,-2.36540758953354
17,-2.40424914807632
17.05,-2.44293292439204
17.1,-2.48135565013378
17.15,-2.51941858097858
17.2,-2.55702761321096
17.25,-2.59409334728039
17.3,-2.63053110447942
17.35,-2.66626090279177
17.4,-2.70120739775503
17.45,-2.7352997938963
17.5,-2.76847173195378
17.55,-2.80066115671374
17.6,-2.83181016988622
17.65,-2.86186487203053
17.7,-2.89077519713217
17.75,-2.91849474303784
17.8,-2.9449806005791
17.85,-2.97019318386531
17.9,-2.99409606390373
17.95,-3.01665580741316
18,-3.03784182243662
