"Freq [GHz]","dB(GainTotal) [] - Phi='0deg' Theta='0deg'"
6,4.39141980887683
6.05,4.43485901516804
6.1,4.48222469935607
6.15,4.53230898895261
6.2,4.58412083312536
6.25,4.63684949476909
6.3,4.68983562807264
6.35,4.74254809292287
6.4,4.79456467067198
6.45,4.84555620192286
6.5,4.89527321298026
6.55,4.94353434785559
6.6,4.99021660634765
6.65,5.03524657718579
6.7,5.07859291079514
6.75,5.12025981834646
6.8,5.16028097474985
6.85,5.19871439426864
6.9,5.23563799835014
6.95,5.27114533461887
7,5.30534234876697
7.05,5.33834395266343
7.1,5.37027168104542
7.15,5.40125119275719
7.2,5.43141052630147
7.25,5.4608784002586
7.3,5.48978301673013
7.35,5.51825092797369
7.4,5.54640638408566
7.45,5.5743707396571
7.5,5.60226215491361
7.55,5.6301953326647
7.6,5.65828163534959
7.65,5.68662908119746
7.7,5.71534251733656
7.75,5.744523930846
7.8,5.77427264683329
7.85,5.80468547285493
7.9,5.83585669135881
7.95,5.86787804733018
8,5.90083820883114
8.05,5.9348218213775
8.1,5.96990812678182
8.15,6.00616881742015
8.2,6.0436650029728
8.25,6.0824433096974
8.3,6.12253096389893
8.35,6.16392968543822
8.4,6.20660928410962
8.45,6.25050039166581
8.5,6.29548797381901
8.55,6.34140585621921
8.6,6.38803386380264
8.65,6.43509871522108
8.7,6.48227962757393
8.75,6.52921938132305
8.8,6.57554093527093
8.85,6.62086775740389
8.9,6.66484657203877
8.95,6.70716916325677
9,6.74759092804266
9.05,6.78594302097977
9.1,6.82213757451302
9.15,6.85616541387038
9.2,6.88808735236608
9.25,6.91802106842723
9.3,6.94612603683037
9.35,6.97258799078144
9.4,6.99760486898796
9.45,7.02137544089933
9.5,7.04409024437954
9.55,7.06592578359199
9.6,7.08704098806937
9.65,7.10757554602836
9.7,7.12764996897625
9.75,7.14736632080999
9.8,7.16681002801109
9.85,7.18605152115734
9.9,7.20514820315719
9.95,7.22414644827297
10,7.24308328282223
10.05,7.2619879253544
10.1,7.28088313798803
10.15,7.29978634850643
10.2,7.31871062592585
10.25,7.3376653227902
10.3,7.35665675818916
10.35,7.37568866933715
10.4,7.39476244241616
10.45,7.41387751448126
10.5,7.4330313099656
10.55,7.45221969015101
10.6,7.47143668603301
10.65,7.4906746807827
10.7,7.50992445021898
10.75,7.52917501427182
10.8,7.54841378363598
10.85,7.56762636694694
10.9,7.58679664561603
10.95,7.60590679192037
11,7.62493714863077
11.05,7.64386624113556
11.1,7.66267100624641
11.15,7.68132644082107
11.2,7.6998059435108
11.25,7.71808135820331
11.3,7.73612288997324
11.35,7.75389933922073
11.4,7.77137809614602
11.45,7.78852545318524
11.5,7.80530654981346
11.55,7.82168571424396
11.6,7.83762645807482
11.65,7.85309177783414
11.7,7.86804435568421
11.75,7.88244662658405
11.8,7.89626108475391
11.85,7.90945030844921
11.9,7.92197730044224
11.95,7.93380563908778
12,7.94489966059965
12.05,7.95522484480921
12.1,7.9647479851989
12.15,7.97343762457344
12.2,7.98126436119419
12.25,7.98820135968284
12.3,7.9942245913197
12.35,7.99931348051598
12.4,8.00345129628318
12.45,8.00662567323227
12.5,8.00882928335859
12.55,8.01006030670506
12.6,8.01032305642116
12.65,8.00962860643391
12.7,8.00799528794264
12.75,8.00544920650144
12.8,8.00202458662831
12.85,7.99776409652304
12.9,7.9927188261907
12.95,7.98694832822872
13,7.98052015204754
13.05,7.97350941277771
13.1,7.96599773315832
13.15,7.95807234773739
13.2,7.94982473262277
13.25,7.94134902964983
13.3,7.93274039779866
13.35,7.92409337089198
13.4,7.91549989585967
13.45,7.90704774155296
13.5,7.89881900883309
13.55,7.89088867349703
13.6,7.883323568533
13.65,7.87618159551627
13.7,7.86951145989087
13.75,7.86335256886388
13.8,7.85773524105719
13.85,7.8526815340645
13.9,7.84820576958175
13.95,7.84431579808802
14,7.84101393046171
14.05,7.8382979506671
14.1,7.83616219821383
14.15,7.83459821963421
14.2,7.83359532795978
14.25,7.83314094760723
14.3,7.83322026821577
14.35,7.8338160036192
14.4,7.8349073945371
14.45,7.83646925790701
14.5,7.83847042652651
14.55,7.84087227209219
14.6,7.84362687900852
14.65,7.84667565401306
14.7,7.84994755468299
14.75,7.85335792264479
14.8,7.8568078668386
14.85,7.8601837309135
14.9,7.86335751588386
14.95,7.86618801992201
15,7.86852226505982
15.05,7.87019795234624
15.1,7.87104634698381
15.15,7.87089538610486
15.2,7.86957327748508
15.25,7.86691188461554
15.3,7.86275007405003
15.35,7.85693669422439
15.4,7.84933311294497
15.45,7.83981482192454
15.5,7.82827284423383
15.55,7.81461409098984
15.6,7.79876134053489
15.65,7.78065224784619
15.7,7.76023852119713
15.75,7.73748412874544
15.8,7.71236364468102
15.85,7.68486037944833
15.9,7.65496454710923
15.95,7.62267132901995
16,7.58797949111393
16.05,7.55088964613383
16.1,7.51140319932431
16.15,7.46952119512
16.2,7.42524366586539
16.25,7.37856896766752
16.3,7.32949347357656
16.35,7.27801134179667
16.4,7.22411445910771
16.45,7.16779263345161
16.5,7.10903367436119
16.55,7.04782371651366
16.6,6.98414751480435
16.65,6.91798896339907
16.7,6.84933118343562
16.75,6.77815717712652
16.8,6.7044501622526
16.85,6.62819386396868
16.9,6.54937297090911
16.95,6.46797347824941
17,6.38398303190855
17.05,6.29739133542384
17.1,6.20819028088653
17.15,6.11637464442807
17.2,6.02194197605231
17.25,5.92489345785543
17.3,5.82523394337333
17.35,5.72297258591236
17.4,5.61812312018834
17.45,5.51070449194204
17.5,5.40074135080558
17.55,5.28826461258856
17.6,5.17331202063979
17.65,5.05592879681212
17.7,4.93616853780818
17.75,4.81409353697368
17.8,4.68977591127277
17.85,4.56329825795699
17.9,4.43475459660399
17.95,4.30425113074528
18,4.17190742215136
