"Freq [GHz]","dB(St11) []"
6,-0.239486133520736
6.05,-0.245259806213865
6.1,-0.250947830951211
6.15,-0.256575285614238
6.2,-0.262165676808877
6.25,-0.267740966244926
6.3,-0.273321603556608
6.35,-0.278926565257722
6.4,-0.28457339950231
6.45,-0.290278276303375
6.5,-0.296056042848269
6.55,-0.301920283539508
6.6,-0.307883384383923
6.65,-0.313956601351347
6.7,-0.320150132325929
6.75,-0.326473192278564
6.8,-0.332934091297774
6.85,-0.339540315127991
6.9,-0.346298607878783
6.95,-0.353215056585438
7,-0.36029517732042
7.05,-0.367544002576171
7.1,-0.374966169662236
7.15,-0.382566009883607
7.2,-0.390347638291979
7.25,-0.398315043827471
7.3,-0.406472179694666
7.35,-0.414823053843593
7.4,-0.423371819453411
7.45,-0.432122865343725
7.5,-0.44108090626582
7.55,-0.450251073053275
7.6,-0.459639002638931
7.65,-0.469250927972097
7.7,-0.479093767897521
7.75,-0.489175217084896
7.8,-0.499503836125285
7.85,-0.510089141939073
7.9,-0.520941698668552
7.95,-0.532073209257821
8,-0.543496607953218
8.05,-0.555226153989674
8.1,-0.56727752676216
8.15,-0.579667922817411
8.2,-0.592416155040277
8.25,-0.605542754450675
8.3,-0.619070075073421
8.35,-0.633022402393498
8.4,-0.647426065965002
8.45,-0.662309556803919
8.5,-0.677703650263607
8.55,-0.6936415351688
8.6,-0.710158950069921
8.65,-0.727294327576203
8.7,-0.745088947834388
8.75,-0.763587102341949
8.8,-0.782836269421047
8.85,-0.802887302833989
8.9,-0.823794635195505
8.95,-0.845616498033321
9,-0.868415160570186
9.05,-0.892257189550194
9.1,-0.91721373271398
9.15,-0.943360828845042
9.2,-0.970779747668307
9.25,-0.999557363286274
9.3,-1.02978656529551
9.35,-1.06156671224173
9.4,-1.09500413265523
9.45,-1.13021267956716
9.5,-1.16731434515325
9.55,-1.20643994299544
9.6,-1.24772986640893
9.65,-1.29133493236709
9.7,-1.33741732178964
9.75,-1.38615162836124
9.8,-1.43772602964514
9.85,-1.49234359607953
9.9,-1.55022375553061
9.95,-1.6116039334682
10,-1.67674139158248
10.05,-1.74591529083768
10.1,-1.81942900864118
10.15,-1.89761274409506
10.2,-1.98082645031843
10.25,-2.06946313874257
10.3,-2.16395260729773
10.35,-2.26476565279816
10.4,-2.37241883794953
10.45,-2.48747989572367
10.5,-2.61057386900688
10.55,-2.7423901022931
10.6,-2.88369022594111
10.65,-3.03531730376911
10.7,-3.19820635377268
10.75,-3.37339650266992
10.8,-3.56204510222711
10.85,-3.76544422517684
10.9,-3.98504007997239
10.95,-4.22245604954309
11,-4.47952028840824
11.05,-4.75829913257677
11.1,-5.06113802867545
11.15,-5.39071233466228
11.2,-5.7500912792344
11.25,-6.1428197387519
11.3,-6.57302453492681
11.35,-7.04555505733627
11.4,-7.56617281177126
11.45,-8.14181208391137
11.5,-8.78094621740774
11.55,-9.4941145392152
11.6,-10.2947002838823
11.65,-11.2001126407338
11.7,-12.2336413602485
11.75,-13.4274702563133
11.8,-14.827751027833
11.85,-16.5033751609893
11.9,-18.5607948244127
11.95,-21.1618261064648
12,-24.4629662824725
12.05,-27.6777197647762
12.1,-26.985319553465
12.15,-23.5729439912283
12.2,-20.5675241534833
12.25,-18.2336662168885
12.3,-16.3883931557766
12.35,-14.886762663192
12.4,-13.6349712332857
12.45,-12.5717401692083
12.5,-11.6554855631722
12.55,-10.8568572062262
12.6,-10.1543973976709
12.65,-9.53193438529052
12.7,-8.97695926667833
12.75,-8.47957939652439
12.8,-8.03182172628023
12.85,-7.62715562323721
12.9,-7.26015751220488
12.95,-6.92626965370946
13,-6.62162293787434
13.05,-6.34290417742391
13.1,-6.08725496047298
13.15,-5.85219330418373
13.2,-5.63555206670242
13.25,-5.43542987537283
13.3,-5.25015154462568
13.35,-5.07823579106551
13.4,-4.91836863455858
13.45,-4.76938128502506
13.5,-4.63023160902098
13.55,-4.49998848380607
13.6,-4.37781850349729
13.65,-4.26297461852138
13.7,-4.15478637723967
13.75,-4.05265150524276
13.8,-3.95602860899185
13.85,-3.86443083020257
13.9,-3.77742030849947
13.95,-3.69460333449969
14,-3.61562609514756
14.05,-3.54017092894954
14.1,-3.46795302160175
14.15,-3.39871748299748
14.2,-3.33223675523811
14.25,-3.26830830841992
14.3,-3.20675258692212
14.35,-3.14741117390323
14.4,-3.0901451459037
14.45,-3.03483359299268
14.5,-2.98137228290209
14.55,-2.92967245015242
14.6,-2.87965969336926
14.65,-2.83127296587796
14.7,-2.78446364630001
14.75,-2.73919467730027
14.8,-2.69543976188785
14.85,-2.65318260778521
14.9,-2.61241621137757
14.95,-2.57314217366159
15,-2.53537004144712
15.05,-2.49911666784763
15.1,-2.46440558683666
15.15,-2.43126639736237
15.2,-2.39973415320998
15.25,-2.3698487554898
15.3,-2.34165434531242
15.35,-2.31519869489572
15.4,-2.29053259603147
15.45,-2.26770924552104
15.5,-2.24678362786675
15.55,-2.22781189617178
15.6,-2.21085075284948
15.65,-2.19595683236287
15.7,-2.18318608879632
15.75,-2.1725931915906
15.8,-2.16423093323871
15.85,-2.15814965312791
15.9,-2.15439668201288
15.95,-2.15301581180339
16,-2.15404679543848
16.05,-2.15752488159082
16.1,-2.16348038879565
16.15,-2.17193832332805
16.2,-2.18291804476378
16.25,-2.196432982659
16.3,-2.21249040718455
16.35,-2.23109125586519
16.4,-2.25223001782117
16.45,-2.27589467610892
16.5,-2.30206670793136
16.55,-2.33072114165934
16.6,-2.3618266687972
16.65,-2.39534580825849
16.7,-2.43123511961381
16.75,-2.46944546134847
16.8,-2.50992228963737
16.85,-2.55260599272011
16.9,-2.59743225564649
16.95,-2.64433244996491
17,-2.69323404284305
17.05,-2.74406102013601
17.1,-2.79673431804616
17.15,-2.85117225823874
17.2,-2.90729098157781
17.25,-2.96500487601372
17.3,-3.0242269945715
17.35,-3.08486945984592
17.4,-3.1468438518888
17.45,-3.2100615768639
17.5,-3.27443421433367
17.55,-3.3398738415182
17.6,-3.4062933333217
17.65,-3.47360663734878
17.7,-3.54172902352518
17.75,-3.61057730829225
17.8,-3.68007005365858
17.85,-3.75012774166468
17.9,-3.82067292504763
17.95,-3.89163035508343
18,-3.96292708773672
