"Freq [GHz]","dB(St11) []"
6,-0.178931162320083
6.05,-0.182289941512111
6.1,-0.185753613674231
6.15,-0.189326029657073
6.2,-0.193010718782372
6.25,-0.196810917466384
6.3,-0.200729598434043
6.35,-0.204769500501475
6.4,-0.208933158908234
6.45,-0.213222936184173
6.5,-0.217641053540405
6.55,-0.222189622778107
6.6,-0.226870678714255
6.65,-0.23168621212848
6.7,-0.236638203241258
6.75,-0.241728655739917
6.8,-0.246959631375549
6.85,-0.252333285161338
6.9,-0.257851901210438
6.95,-0.263517929259993
7,-0.269334021936794
7.05,-0.275303072829739
7.1,-0.281428255444632
7.15,-0.287713063128092
7.2,-0.294161350059423
7.25,-0.30077737342238
7.3,-0.30756583688305
7.35,-0.3145319355155
7.4,-0.321681402333631
7.45,-0.329020556606255
7.5,-0.336556354152364
7.55,-0.3442964398359
7.6,-0.352249202503453
7.65,-0.360423832635372
7.7,-0.368830383010219
7.75,-0.377479832715363
7.8,-0.386384154872936
7.85,-0.39555638849065
7.9,-0.405010714892113
7.95,-0.414762539231212
8,-0.42482857765128
8.05,-0.435226950712183
8.1,-0.445977283778692
8.15,-0.457100815141941
8.2,-0.468620512734047
8.25,-0.480561200395253
8.3,-0.492949694764375
8.35,-0.505814953989432
8.4,-0.519188239597125
8.45,-0.533103293020256
8.5,-0.547596528463638
8.55,-0.562707243994295
8.6,-0.578477852974602
8.65,-0.594954138221118
8.7,-0.612185531571815
8.75,-0.630225421885803
8.8,-0.649131494887782
8.85,-0.66896610871244
8.9,-0.689796709508773
8.95,-0.71169629204142
9,-0.73474391088548
9.05,-0.759025248566188
9.1,-0.784633247860327
9.15,-0.811668816468009
9.2,-0.840241613403968
9.25,-0.870470927767241
9.3,-0.902486662056962
9.35,-0.93643043394005
9.4,-0.972456812382331
9.45,-1.01073470637185
9.5,-1.05144892714366
9.55,-1.09480194792106
9.6,-1.14101588879181
9.65,-1.19033475852614
9.7,-1.24302699002217
9.75,-1.29938831175751
9.8,-1.35974500429029
9.85,-1.42445759867464
9.9,-1.49392508287155
9.95,-1.56858969314138
10,-1.64894238037549
10.05,-1.73552905685117
10.1,-1.82895774761764
10.15,-1.92990679350115
10.2,-2.03913428072078
10.25,-2.15748890694199
10.3,-2.28592253751721
10.35,-2.42550476186693
10.4,-2.57743983303709
10.45,-2.74308647010571
10.5,-2.92398113311448
10.55,-3.12186555812843
10.6,-3.33871958770412
10.65,-3.57680068253301
10.7,-3.83869200396562
10.75,-4.1273616930966
10.8,-4.4462370638504
10.85,-4.79929907337733
10.9,-5.19120495754504
10.95,-5.62745086646265
11,-6.11459264352622
11.05,-6.66055323563813
11.1,-7.27506270394989
11.15,-7.97030742707249
11.2,-8.76192106765755
11.25,-9.67055754990684
11.3,-10.7245064898237
11.35,-11.9642966810205
11.4,-13.4514062142615
11.45,-15.2863928307654
11.5,-17.6519717307438
11.55,-20.9376362404667
11.6,-26.2394735566755
11.65,-37.9921635471112
11.7,-28.6909928603909
11.75,-22.3457561743745
11.8,-18.7339892993058
11.85,-16.2401508863899
11.9,-14.356389989449
11.95,-12.8589674306808
12,-11.6293321473713
12.05,-10.5968569285383
12.1,-9.71588170550412
12.15,-8.95504632970325
12.2,-8.29178494319151
12.25,-7.70925073997905
12.3,-7.19448840445053
12.35,-6.737292000414
12.4,-6.32946063577958
12.45,-5.96429567408628
12.5,-5.63625036990331
12.55,-5.34067893867517
12.6,-5.07365242034927
12.65,-4.83182060211644
12.7,-4.61230646521072
12.75,-4.41262410150015
12.8,-4.23061390623786
12.85,-4.06439072189888
12.9,-3.91230185427396
12.95,-3.77289272935672
13,-3.64487854619949
13.05,-3.52712069403237
13.1,-3.41860699761865
13.15,-3.31843506974229
13.2,-3.22579820826696
13.25,-3.13997339381002
13.3,-3.06031103398542
13.35,-2.98622616918016
13.4,-2.9171909084163
13.45,-2.85272790590896
13.5,-2.79240472226594
13.55,-2.73582894093152
13.6,-2.68264393196513
13.65,-2.63252517268997
13.7,-2.58517704899721
13.75,-2.54033007279549
13.8,-2.49773846075124
13.85,-2.45717802746148
13.9,-2.41844435283978
13.95,-2.38135118902014
14,-2.34572907668317
14.05,-2.31142414454004
14.1,-2.27829706889606
14.15,-2.24622217286186
14.2,-2.21508664696963
14.25,-2.18478987475739
14.3,-2.15524284836604
14.35,-2.12636766040459
14.4,-2.09809705932567
14.45,-2.07037405635719
14.5,-2.04315157269629
14.55,-2.01639211622448
14.6,-1.99006747748218
14.65,-1.9641584350808
14.7,-1.9386544611629
14.75,-1.91355341797685
14.8,-1.8888612371422
14.85,-1.86459157377259
14.9,-1.8407654283207
14.95,-1.81741072983512
15,-1.79456187528973
15.05,-1.77225922077179
15.1,-1.7505485216009
15.15,-1.72948031988985
15.2,-1.70910927963866
15.25,-1.6894934711475
15.3,-1.67069360831064
15.35,-1.65277224416476
15.4,-1.63579293185918
15.45,-1.61981935993026
15.5,-1.60491447233158
15.55,-1.59113958502847
15.6,-1.57855351204278
15.65,-1.56721171457224
15.7,-1.55716548715775
15.75,-1.54846119479496
15.8,-1.54113957436438
15.85,-1.53523511278656
15.9,-1.53077551291733
15.95,-1.527781256423
16,-1.52626527077916
16.05,-1.52623270519435
16.1,-1.52768081776345
16.15,-1.53059897359978
16.2,-1.53496875117996
16.25,-1.54076415175615
16.3,-1.54795190453309
16.35,-1.55649185844466
16.4,-1.56633744985386
16.45,-1.57743623437647
16.5,-1.58973047031205
16.55,-1.60315774085131
16.6,-1.61765160229993
16.65,-1.63314224597825
16.7,-1.64955716217947
16.75,-1.66682179554132
16.8,-1.6848601823478
16.85,-1.70359556157114
16.9,-1.72295095282936
16.95,-1.74284969582098
17,-1.76321594715785
17.05,-1.78397513181064
17.1,-1.80505434758008
17.15,-1.82638272208544
17.2,-1.84789172270871
17.25,-1.86951542073776
17.3,-1.89119071161565
17.35,-1.91285749372839
17.4,-1.93445880855867
17.45,-1.95594094530816
17.5,-1.97725351325947
17.55,-1.99834948522403
17.6,-2.01918521541754
17.65,-2.0397204350358
17.7,-2.05991822868093
17.75,-2.07974499462669
17.8,-2.09917039171953
17.85,-2.11816727550115
17.9,-2.13671162591541
17.95,-2.15478246873453
18,-2.17236179261298
