"Freq [GHz]","dB(GainTotal) [] - Phi='0deg' Theta='0deg'"
6,5.6142953887354
6.05,5.67921826907454
6.1,5.73971278867467
6.15,5.79617163455471
6.2,5.84895224295821
6.25,5.89838009026112
6.3,5.94475180544809
6.35,5.9883379412567
6.4,6.02938572418615
6.45,6.06812094171388
6.5,6.1047502715874
6.55,6.13946285570044
6.6,6.17243199600394
6.65,6.20381638722248
6.7,6.23376149581432
6.75,6.26240056704512
6.8,6.28985566197992
6.85,6.31623847102675
6.9,6.34165126392912
6.95,6.36618738056998
7,6.3899322232251
7.05,6.41296355207341
7.1,6.43535236968351
7.15,6.4571632048655
7.2,6.47845484618997
7.25,6.4992806967967
7.3,6.51968927083307
7.35,6.53972459536659
7.4,6.55942673754857
7.45,6.5788319589893
7.5,6.59797339956848
7.55,6.61688107130129
7.6,6.63558247771981
7.65,6.65410266472705
7.7,6.67246466864468
7.75,6.69068970520402
7.8,6.7087972937789
7.85,6.72680565655557
7.9,6.74473172469125
7.95,6.76259135015848
8,6.78039951687834
8.05,6.79817031306339
8.1,6.81591709100394
8.15,6.83365265304742
8.2,6.85138909552361
8.25,6.86913795103705
8.3,6.88691026235041
8.35,6.90471648778291
8.4,6.92256656897624
8.45,6.94046985647177
8.5,6.95843510946656
8.55,6.97647046228337
8.6,6.99458336772548
8.65,7.01278054320225
8.7,7.03106788626446
8.75,7.04945047895899
8.8,7.06793251022915
8.85,7.0865172100153
8.9,7.10520676620114
8.95,7.12400228719478
9,7.14290388478473
9.05,7.16191039937139
9.1,7.18101956510122
9.15,7.20022789401727
9.2,7.21953070516122
9.25,7.23892214153954
9.3,7.2583950686604
9.35,7.27794125127423
9.4,7.29755127615784
9.45,7.3172146462085
9.5,7.33691977330195
9.55,7.35665423275662
9.6,7.3764045331931
9.65,7.39615648890974
9.7,7.41589524388683
9.75,7.43560527565696
9.8,7.45527061063985
9.85,7.47487486575201
9.9,7.4944014332589
9.95,7.51383350299454
10,7.53315416744777
10.05,7.55234646914112
10.1,7.57139347232743
10.15,7.59027817259435
10.2,7.60898358058877
10.25,7.62749249199602
10.3,7.64578742095218
10.35,7.66385038324604
10.4,7.68166259923713
10.45,7.69920429984808
10.5,7.71645419374947
10.55,7.73338930117877
10.6,7.74998438895778
10.65,7.76621178500494
10.7,7.7820407896611
10.75,7.79743781416623
10.8,7.81236593035163
10.85,7.82678497750063
10.9,7.84065169691731
10.95,7.85392006799779
11,7.86654159903299
11.05,7.87846605587714
11.1,7.88964208945005
11.15,7.90001779440763
11.2,7.909541647285
11.25,7.91816312760876
11.3,7.92583335835106
11.35,7.93250574140378
11.4,7.93813631980729
11.45,7.94268404612725
11.5,7.94611123329433
11.55,7.94838341268808
11.6,7.94946959850786
11.65,7.94934234443482
11.7,7.94797768478367
11.75,7.94535546985201
11.8,7.94145904830063
11.85,7.9362758027093
11.9,7.92979677340317
11.95,7.92201701734134
12,7.91293563501048
12.05,7.90255561544146
12.1,7.89088399601891
12.15,7.8779319506432
12.2,7.86371448590758
12.25,7.8482505489315
12.3,7.83156317822804
12.35,7.81367915174739
12.4,7.79462915952733
12.45,7.77444772248084
12.5,7.75317330463513
12.55,7.73084822258124
12.6,7.7075188898873
12.65,7.68323579305829
12.7,7.65805371278447
12.75,7.63203169083152
12.8,7.60523338360667
12.85,7.57772698333008
12.9,7.54958538031437
12.95,7.52088607910669
13,7.49171119943402
13.05,7.4621471944032
13.1,7.43228455470305
13.15,7.40221738594586
13.2,7.37204278202093
13.25,7.34186006444343
13.3,7.31176996159071
13.35,7.28187356643623
13.4,7.25227133983873
13.45,7.22306203487591
13.5,7.19434168036901
13.55,7.16620241828225
13.6,7.13873189295295
13.65,7.11201226631211
13.7,7.08611993249314
13.75,7.06112498462732
13.8,7.03709131931471
13.85,7.01407663269844
13.9,6.99213265350203
13.95,6.97130581160587
14,6.95163748894418
14.05,6.93316475935206
14.1,6.91592092557019
14.15,6.89993591049818
14.2,6.88523678081046
14.25,6.87184769488307
14.3,6.85979022113993
14.35,6.84908289738779
14.4,6.83974095839038
14.45,6.83177569444585
14.5,6.82519369956602
14.55,6.81999601823155
14.6,6.81617696476439
14.65,6.81372314309941
14.7,6.81261236231633
14.75,6.812812389988
14.8,6.81428012996549
14.85,6.81696070098116
14.9,6.82078654389364
14.95,6.82567716151316
15,6.83153867872794
15.05,6.83826384446706
15.1,6.84573220121676
15.15,6.85381083071907
15.2,6.8623548319577
15.25,6.87120870300858
15.3,6.88020745324832
15.35,6.88917830610927
15.4,6.89794259018076
15.45,6.90631767358202
15.5,6.9141193140968
15.55,6.92116410822392
15.6,6.92727205397822
15.65,6.93226933604322
15.7,6.93599137096601
15.75,6.93828574849918
15.8,6.93901552134637
15.85,6.93806258039989
15.9,6.93533128519434
15.95,6.93075223474685
16,6.92428612621154
16.05,6.9159282621761
16.1,6.90571309626941
16.15,6.89371933512374
16.2,6.88007539953988
16.25,6.86496581713489
16.3,6.84863816095504
16.35,6.83141100033551
16.4,6.81368313963884
16.45,6.79594459070287
16.5,6.7787886135674
16.55,6.7629271394199
16.6,6.74920832994685
16.65,6.73863782694117
16.7,6.73240460695668
16.75,6.73191198224287
16.8,6.7388153643855
16.85,6.75506826245247
16.9,6.78297805937359
16.95,6.8252735449352
17,6.88518645612599
17.05,6.96654790600138
17.1,7.07390073169665
17.15,7.21262346743737
17.2,7.38905490932759
17.25,7.61058961360593
17.3,7.88567512378459
17.35,8.22355814369502
17.4,8.6334401648359
17.45,9.12231333226418
17.5,9.68995224998127
17.55,10.3181891273217
17.6,10.9506035219012
17.65,11.4641152790504
17.7,11.6615826117294
17.75,11.3534938809867
17.8,10.5157994374905
17.85,9.3224409365477
17.9,8.00010794702813
17.95,6.71149902319103
18,5.54247622984987
