"Freq [GHz]","dB(St11) []"
6,-0.357957920248623
6.05,-0.369103117835727
6.1,-0.37969908208887
6.15,-0.389808100667802
6.2,-0.399490370579186
6.25,-0.40880380109813
6.3,-0.417803849602899
6.35,-0.426543389410641
6.4,-0.435072608432592
6.45,-0.443438937244182
6.5,-0.451687004987084
6.55,-0.459858621383612
6.6,-0.467992783046131
6.65,-0.476125702201762
6.7,-0.484290855921916
6.75,-0.49251905394365
6.8,-0.500838523191567
6.85,-0.509275007151574
6.9,-0.517851878307945
6.95,-0.526590261929371
7,-0.535509169575332
7.05,-0.544625640788657
7.1,-0.553954891540345
7.15,-0.563510468097822
7.2,-0.573304405094384
7.25,-0.583347386685336
7.3,-0.59364890978296
7.35,-0.604217448467321
7.4,-0.615060618771798
7.45,-0.626185343140493
7.5,-0.637598013948635
7.55,-0.649304655566417
7.6,-0.661311084531051
7.65,-0.673623067470726
7.7,-0.68624647649849
7.75,-0.699187441862205
7.8,-0.712452501700809
7.85,-0.726048748815486
7.9,-0.739983974418684
7.95,-0.75426680887337
8,-0.768906859480974
8.05,-0.783914845418562
8.1,-0.799302729964963
8.15,-0.815083850192225
8.2,-0.831273044333193
8.25,-0.847886777069028
8.3,-0.864943263012742
8.35,-0.882462588696412
8.4,-0.900466833402289
8.45,-0.918980189211242
8.5,-0.938029080677248
8.55,-0.957642284574627
8.6,-0.977851050206123
8.65,-0.998689220805829
8.7,-1.0201933566221
8.75,-1.04240286032334
8.8,-1.06536010543448
8.85,-1.08911056858591
8.9,-1.11370296643999
8.95,-1.13918939825542
9,-1.16562549515693
9.05,-1.19307057729973
9.1,-1.22158782025564
9.15,-1.25124443210294
9.2,-1.28211184287679
9.25,-1.31426590823365
9.3,-1.3477871294032
9.35,-1.38276089174801
9.4,-1.41927772452709
9.45,-1.45743358476669
9.5,-1.49733016848519
9.55,-1.53907525289989
9.6,-1.5827830736685
9.65,-1.62857474168972
9.7,-1.67657870451153
9.75,-1.72693125797844
9.8,-1.77977711439708
9.85,-1.83527003421999
9.9,-1.89357352905149
9.95,-1.95486164467697
10,-2.01931983382122
10.05,-2.08714592947043
10.1,-2.15855123086448
10.15,-2.23376171570699
10.2,-2.31301939378104
10.25,-2.39658381903701
10.3,-2.48473377938465
10.35,-2.57776918593673
10.4,-2.67601318639589
10.45,-2.77981453075262
10.5,-2.88955022160398
10.55,-3.00562848638243
10.6,-3.12849211483083
10.65,-3.25862221247113
10.7,-3.3965424299877
10.75,-3.54282373990679
10.8,-3.69808984640629
10.85,-3.86302333247484
10.9,-4.03837267223181
10.95,-4.22496026674072
11,-4.42369170145121
11.05,-4.63556647571251
11.1,-4.86169052407179
11.15,-5.10329094151147
11.2,-5.3617334491169
11.25,-5.63854330529026
11.3,-5.93543059834104
11.35,-6.25432117498912
11.4,-6.59739490425383
11.45,-6.96713360470941
11.5,-7.36638186264658
11.55,-7.7984252752667
11.6,-8.26709258231496
11.65,-8.77689105106504
11.7,-9.33318893309428
11.75,-9.942465802627
11.8,-10.6126628358479
11.85,-11.353683683862
11.9,-12.1781282143504
11.95,-13.1023967858901
12,-14.1484024681416
12.05,-15.346311734058
12.1,-16.7390667330281
12.15,-18.3899739996434
12.2,-20.3948696839376
12.25,-22.8944474319721
12.3,-26.0156894524028
12.35,-29.1348726221599
12.4,-28.9981186636008
12.45,-25.8883630381861
12.5,-22.9086421837273
12.55,-20.5471767027691
12.6,-18.666268990731
12.65,-17.1284562455663
12.7,-15.8407691674574
12.75,-14.7416452194113
12.8,-13.789151535594
12.85,-12.953705763084
12.9,-12.2137371736407
12.95,-11.5530507140392
13,-10.959175167182
13.05,-10.4222942383734
13.1,-9.93453372381156
13.15,-9.48947296973359
13.2,-9.0818017118619
13.25,-8.70707363764352
13.3,-8.36152583436501
13.35,-8.04194408374004
13.4,-7.74556068034167
13.45,-7.46997573196773
13.5,-7.21309568924119
13.55,-6.97308470613302
13.6,-6.74832568880504
13.65,-6.5373887548299
13.7,-6.33900542941261
13.75,-6.1520473339263
13.8,-5.97550843001024
13.85,-5.80849010634767
13.9,-5.65018855982818
13.95,-5.49988404508412
14,-5.35693165815502
14.05,-5.22075338955154
14.1,-5.09083123513451
14.15,-4.96670119420749
14.2,-4.84794801609385
14.25,-4.73420058145971
14.3,-4.6251278243943
14.35,-4.52043511699031
14.4,-4.41986105079137
14.45,-4.32317455968165
14.5,-4.23017233710921
14.55,-4.14067650735942
14.6,-4.05453251624081
14.65,-3.97160721125213
14.7,-3.89178708525634
14.75,-3.81497666104456
14.8,-3.74109699704833
14.85,-3.67008429694831
14.9,-3.60188860810728
14.95,-3.53647259568737
15,-3.47381038104516
15.05,-3.41388643457416
15.1,-3.35669451461385
15.15,-3.30223664539284
15.2,-3.25052212823974
15.25,-3.20156658149279
15.3,-3.15539100567591
15.35,-3.11202087159047
15.4,-3.07148522999747
15.45,-3.0338158425325
15.5,-2.9990463343985
15.55,-2.96721137021179
15.6,-2.93834585512371
15.65,-2.91248416399299
15.7,-2.88965940193033
15.75,-2.86990269996565
15.8,-2.85324254988921
15.85,-2.83970418248254
15.9,-2.82930899337897
15.95,-2.82207402067183
16,-2.81801147812663
16.05,-2.81712834745386
16.1,-2.8194260325738
16.15,-2.82490007816795
16.2,-2.83353995408048
16.25,-2.84532890633018
16.3,-2.86024387464205
16.35,-2.87825547553325
16.4,-2.89932804911775
16.45,-2.92341976695201
16.5,-2.9504827974561
16.55,-2.98046352473154
16.6,-3.0133028159779
16.65,-3.04893633219955
16.7,-3.08729487650178
16.75,-3.12830477400901
16.8,-3.17188827729615
16.85,-3.21796399120733
16.9,-3.26644731103503
16.95,-3.31725086823877
17,-3.37028497818287
17.05,-3.42545808475266
17.1,-3.48267719715304
17.15,-3.5418483146855
17.2,-3.60287683582424
17.25,-3.66566794845385
17.3,-3.73012699867494
17.35,-3.79615983611958
17.4,-3.86367313423266
17.45,-3.93257468446067
17.5,-4.00277366373892
17.55,-4.07418087507609
17.6,-4.14670896139866
17.65,-4.22027259313534
17.7,-4.29478863029241
17.75,-4.37017625999621
17.8,-4.44635711066104
17.85,-4.52325534408102
17.9,-4.60079772684766
17.95,-4.6789136825632
18,-4.75753532635815
