"Freq [GHz]","dB(St11) []"
6,-0.109605398503637
6.05,-0.111701324379394
6.1,-0.113703547132054
6.15,-0.115624897021572
6.2,-0.117477654840242
6.25,-0.119273560885142
6.3,-0.121023824240757
6.35,-0.122739132395804
6.4,-0.124429661218455
6.45,-0.12610508531455
6.5,-0.12777458879375
6.55,-0.129446876469232
6.6,-0.131130185517384
6.65,-0.132832297624776
6.7,-0.134560551650945
6.75,-0.136321856836996
6.8,-0.138122706591529
6.85,-0.139969192887571
6.9,-0.141867021306236
6.95,-0.143821526765667
7,-0.145837689976561
7.05,-0.14792015466926
7.1,-0.150073245640931
7.15,-0.152300987675945
7.2,-0.154607125397264
7.25,-0.156995144112153
7.3,-0.159468291721638
7.35,-0.162029601769781
7.4,-0.16468191771652
7.45,-0.167427918525995
7.5,-0.170270145671607
7.55,-0.173211031669301
7.6,-0.176252930261632
7.65,-0.179398148388015
7.7,-0.182648980089904
7.75,-0.186007742515124
7.8,-0.189476814202251
7.85,-0.193058675844472
7.9,-0.196755953752755
7.95,-0.200571466260971
8,-0.204508273340463
8.05,-0.2085697297196
8.1,-0.212759541834563
8.15,-0.21708182897207
8.2,-0.221541189003161
8.25,-0.226142769150095
8.3,-0.23089234227648
8.35,-0.235796389245132
8.4,-0.240862187949342
8.45,-0.246097909692659
8.5,-0.251512723671485
8.55,-0.257116910404941
8.6,-0.262921985060448
8.65,-0.268940831742834
8.7,-0.275187849953493
8.75,-0.281679114586984
8.8,-0.288432551020857
8.85,-0.295468127074932
8.9,-0.302808063876192
8.95,-0.310477067972633
9,-0.318502587403468
9.05,-0.326915094866384
9.1,-0.335748401639456
9.15,-0.345040006533368
9.2,-0.35483148489031
9.25,-0.365168923535017
9.3,-0.376103408652215
9.35,-0.387691574850601
9.4,-0.39999622522123
9.45,-0.413087034061958
9.5,-0.427041346182511
9.55,-0.441945089402435
9.6,-0.457893820094125
9.65,-0.474993925507175
9.7,-0.493364011253303
9.75,-0.513136507860892
9.8,-0.53445953686149
9.85,-0.557499084584001
9.9,-0.582441540828435
9.95,-0.609496669950434
10,-0.638901093602425
10.05,-0.670922377274942
10.1,-0.705863826399381
10.15,-0.744070111153592
10.2,-0.78593385047978
10.25,-0.831903292070568
10.3,-0.8824912209476
10.35,-0.938285206079702
10.4,-0.999959238212099
10.45,-1.06828670027083
10.5,-1.14415440901558
10.55,-1.22857711811036
10.6,-1.3227112944904
10.65,-1.42786604611345
10.7,-1.54550760718036
10.75,-1.67725152279279
10.8,-1.82483329160448
10.85,-1.99004335900828
10.9,-2.1746057417807
10.95,-2.37997140126339
11,-2.60698920631296
11.05,-2.85541316272233
11.1,-3.12321406027501
11.15,-3.40570458452582
11.2,-3.69458534266756
11.25,-3.97719710926107
11.3,-4.23649832738896
11.35,-4.4524334026723
11.4,-4.60511960574398
11.45,-4.67940580317902
11.5,-4.66914246124866
11.55,-4.57901673669435
11.6,-4.42291724767642
11.65,-4.2197988793063
11.7,-3.98916781196331
11.75,-3.74786297978962
11.8,-3.50861408111681
11.85,-3.27997824867184
11.9,-3.06700890917026
11.95,-2.87214690584283
12,-2.69605083355398
12.05,-2.53825743503139
12.1,-2.39765953875256
12.15,-2.27282958697046
12.2,-2.16222673642055
12.25,-2.06432211287456
12.3,-1.97766929827753
12.35,-1.9009396113146
12.4,-1.83293561131705
12.45,-1.77259171821422
12.5,-1.71896766708336
12.55,-1.67123837542845
12.6,-1.62868239590843
12.65,-1.59067022412102
12.7,-1.55665316214447
12.75,-1.52615308767558
12.8,-1.49875326773219
12.85,-1.47409023359483
12.9,-1.45184666655784
12.95,-1.43174521072383
13,-1.41354311591135
13.05,-1.39702761221933
13.1,-1.3820119226201
13.15,-1.36833182791505
13.2,-1.35584270756875
13.25,-1.34441698923879
13.3,-1.33394194864155
13.35,-1.32431780944772
13.4,-1.31545610007579
13.45,-1.30727823053883
13.5,-1.29971425795136
13.55,-1.29270181399399
13.6,-1.28618517165076
13.65,-1.28011443196499
13.7,-1.27444481448458
13.75,-1.26913603756276
13.8,-1.26415177680841
13.85,-1.25945919180193
13.9,-1.25502851275438
13.95,-1.25083268013394
14,-1.24684703144936
14.05,-1.24304903039626
14.1,-1.23941803446436
14.15,-1.23593509789338
14.2,-1.23258280757087
14.25,-1.22934515010076
14.3,-1.22620740884916
14.35,-1.22315609030187
14.4,-1.22017887955332
14.45,-1.21726462519142
14.5,-1.21440335424821
14.55,-1.2115863182478
14.6,-1.20880607169572
14.65,-1.20605658460505
14.7,-1.20333339082932
14.75,-1.20063377404953
14.8,-1.19795699321529
14.85,-1.19530454903486
14.9,-1.19268049270762
14.95,-1.19009177744682
15,-1.18754865240365
15.05,-1.18506509731659
15.1,-1.18265929452358
15.15,-1.18035413283477
15.2,-1.17817773513514
15.25,-1.1761639984503
15.3,-1.17435313157989
15.35,-1.1727921713426
15.4,-1.17153545410521
15.45,-1.17064501478708
15.5,-1.17019088122801
15.55,-1.17025122807639
15.6,-1.17091235168161
15.65,-1.17226842644155
15.7,-1.17442100428874
15.75,-1.1774782231281
15.8,-1.18155369761155
15.85,-1.18676507701415
15.9,-1.19323227023239
15.95,-1.201075356717
16,-1.21041222364487
16.05,-1.22135599245641
16.1,-1.23401232016997
16.15,-1.24847668039883
16.2,-1.26483174336915
16.25,-1.28314498126624
16.3,-1.30346662323708
16.35,-1.32582807250764
16.4,-1.35024087657117
16.45,-1.37669631167335
16.5,-1.40516560733251
16.55,-1.43560079863862
16.6,-1.46793615717479
16.65,-1.50209011905637
16.7,-1.53796760362701
16.75,-1.57546260065973
16.8,-1.6144608982018
16.85,-1.65484282704746
16.9,-1.69648590983116
16.95,-1.73926732084738
17,-1.78306608455154
17.05,-1.82776496392359
17.1,-1.87325201241921
17.15,-1.91942178348814
17.2,-1.96617620854275
17.25,-2.01342516727766
17.3,-2.06108678329436
17.35,-2.10908748334669
17.4,-2.15736186069633
17.45,-2.20585238267764
17.5,-2.25450898027357
17.55,-2.30328855391778
17.6,-2.35215442540302
17.65,-2.40107576113324
17.7,-2.45002698734118
17.75,-2.49898721354221
17.8,-2.54793967655941
17.85,-2.59687121401648
17.9,-2.64577177328165
17.95,-2.69463395944724
18,-2.74345262401162
