"Freq [GHz]","dB(St11) []"
6,-0.261838501691484
6.05,-0.269356345913878
6.1,-0.276473145513187
6.15,-0.283220705088886
6.2,-0.289630095323872
6.25,-0.295731656571473
6.3,-0.301555004784629
6.35,-0.307129039648846
6.4,-0.312481954790641
6.45,-0.317641249944263
6.5,-0.322633744971148
6.55,-0.327485595638495
6.6,-0.332222311076067
6.65,-0.336868772843446
6.7,-0.341449255553123
6.75,-0.345987449009094
6.8,-0.350506481834608
6.85,-0.355028946577637
6.9,-0.359576926297806
6.95,-0.364172022654432
7,-0.368835385531652
7.05,-0.373587744253751
7.1,-0.37844944046193
7.15,-0.383440462742535
7.2,-0.388580483116885
7.25,-0.393888895524207
7.3,-0.399384856451988
7.35,-0.405087327892625
7.4,-0.41101512283177
7.45,-0.417186953502641
7.5,-0.423621482671905
7.55,-0.430337378257285
7.6,-0.437353371614748
7.65,-0.444688319875
7.7,-0.452361272755173
7.75,-0.460391544322801
7.8,-0.468798790246401
7.85,-0.477603091130473
7.9,-0.486825042603828
7.95,-0.496485852909901
8,-0.506607448836735
8.05,-0.51721259092463
8.1,-0.528324999001969
8.15,-0.539969489226293
8.2,-0.552172123950371
8.25,-0.564960375893392
8.3,-0.578363308278405
8.35,-0.592411772800942
8.4,-0.607138627523422
8.45,-0.622578977048798
8.5,-0.638770437618178
8.55,-0.65575343010498
8.6,-0.673571504246351
8.65,-0.692271697865726
8.7,-0.711904935302488
8.75,-0.732526469780736
8.8,-0.754196375022472
8.85,-0.776980092045184
8.9,-0.800949037781886
8.95,-0.826181282922985
9,-0.852762307202038
9.05,-0.880785841223223
9.1,-0.910354804844141
9.15,-0.941582353058915
9.2,-0.974593041237224
9.25,-1.00952412240732
9.3,-1.04652698994364
9.35,-1.08576877941101
9.4,-1.12743414325781
9.45,-1.17172721129924
9.5,-1.21887374815436
9.55,-1.26912351553453
9.6,-1.32275284189124
9.65,-1.38006739355312
9.7,-1.441405128944
9.75,-1.50713939920044
9.8,-1.577682132396
9.85,-1.65348700184528
9.9,-1.73505242795654
9.95,-1.82292419310033
10,-1.91769735394193
10.05,-2.02001700812433
10.1,-2.13057730296298
10.15,-2.25011785231278
10.2,-2.37941644248588
10.25,-2.51927654808354
10.3,-2.67050773647384
10.35,-2.83389651726809
10.4,-3.01016461170531
10.45,-3.1999110338678
10.5,-3.40353391232751
10.55,-3.62112786346402
10.6,-3.85235334494466
10.65,-4.09627638776371
10.7,-4.35118132502216
10.75,-4.61436674189879
10.8,-4.88194696046066
10.85,-5.14869823948653
10.9,-5.40800851476147
10.95,-5.65200551951258
11,-5.87193812467027
11.05,-6.0588533353303
11.1,-6.20453546973271
11.15,-6.3025651305109
11.2,-6.34925759976761
11.25,-6.34421744812626
11.3,-6.29033805726453
11.35,-6.1932523870784
11.4,-6.06041464538125
11.45,-5.90007495424977
11.5,-5.7203785105984
11.55,-5.52872092923199
11.6,-5.33138588949137
11.65,-5.13342047634617
11.7,-4.93867538797707
11.75,-4.74993930869605
11.8,-4.56911309514706
11.85,-4.39738835136814
11.9,-4.23541072835604
11.95,-4.08341929064066
12,-3.9413600291389
12.05,-3.80897520872119
12.1,-3.68587183140914
12.15,-3.57157291697637
12.2,-3.46555511535997
12.25,-3.36727571182828
12.3,-3.27619155730336
12.35,-3.19177194929101
12.4,-3.11350704536026
12.45,-3.0409130231324
12.5,-2.97353490561683
12.55,-2.91094773948846
12.6,-2.85275663571924
12.65,-2.79859604640172
12.7,-2.74812854946189
12.75,-2.70104333663432
12.8,-2.65705454344631
12.85,-2.61589951822573
12.9,-2.57733709659781
12.95,-2.54114592573261
13,-2.50712286659968
13.05,-2.4750814910621
13.1,-2.44485068258824
13.15,-2.41627334377356
13.2,-2.38920521007634
13.25,-2.36351376668283
13.3,-2.33907726386417
13.35,-2.31578382529804
13.4,-2.29353064340646
13.45,-2.2722232556617
13.5,-2.25177489593169
13.55,-2.23210591519688
13.6,-2.21314326632054
13.65,-2.19482004795261
13.7,-2.1770751030685
13.75,-2.1598526680685
13.8,-2.14310206877854
13.85,-2.12677746008947
13.9,-2.1108376063454
13.95,-2.09524569993617
14,-2.07996921586481
14.05,-2.06497980034352
14.1,-2.0502531917221
14.15,-2.03576917226754
14.2,-2.02151154949314
14.25,-2.00746816587543
14.3,-1.99363093589751
14.35,-1.97999590941231
14.4,-1.9665633603265
14.45,-1.95333789955914
14.5,-1.94032861112311
14.55,-1.92754921000541
14.6,-1.91501822027559
14.65,-1.90275917152268
14.7,-1.89080081129949
14.75,-1.87917733073021
14.8,-1.8679285998025
14.85,-1.85710040811028
14.9,-1.84674470592995
14.95,-1.83691983949537
15,-1.82769077318428
15.05,-1.81912929004355
15.1,-1.81131416067343
15.15,-1.80433126898161
15.2,-1.79827368173694
15.25,-1.79324164724664
15.3,-1.78934250691158
15.35,-1.78669050196456
15.4,-1.78540645647041
15.45,-1.78561731678996
15.5,-1.7874555273335
15.55,-1.79105822272048
15.6,-1.79656621760661
15.65,-1.80412277762787
15.7,-1.81387215832801
15.75,-1.825957903745
15.8,-1.84052090265232
15.85,-1.85769720833522
15.9,-1.87761563719032
15.95,-1.90039517221007
16,-1.9261422092527
16.05,-1.95494769645114
16.1,-1.98688422957157
16.15,-2.02200317784317
16.2,-2.06033192488683
16.25,-2.10187131695555
16.3,-2.14659341486754
16.35,-2.19443964596812
16.4,-2.24531944760032
16.45,-2.29910948357772
16.5,-2.35565350007352
16.55,-2.41476286759399
16.6,-2.47621783212084
16.65,-2.5397694722688
16.7,-2.60514233187419
16.75,-2.67203767043142
16.8,-2.74013724887433
16.85,-2.80910754688733
16.9,-2.87860429150551
16.95,-2.94827716614313
17,-3.01777456487468
17.05,-3.08674825882774
17.1,-3.15485784955317
17.15,-3.22177489745958
17.2,-3.28718663079638
17.25,-3.35079916101689
17.3,-3.41234015234673
17.35,-3.47156091574486
17.4,-3.52823791900696
17.45,-3.58217372453381
17.5,-3.63319738350414
17.55,-3.6811643293291
17.6,-3.72595582404291
17.65,-3.76747801864936
17.7,-3.80566069253446
17.75,-3.84045573816843
17.8,-3.87183545585885
17.85,-3.89979071975459
17.9,-3.92432907113448
17.95,-3.94547278873698
18,-3.96325697895257
