"Freq [GHz]","dB(GainTotal) [] - Phi='0deg' Theta='0deg'"
6,0.988750550139419
6.05,1.14095607954633
6.1,1.28899985493294
6.15,1.43297731310535
6.2,1.572988022023
6.25,1.70913507502889
6.3,1.84152461985571
6.35,1.97026549020537
6.4,2.09546854859847
6.45,2.21724643495459
6.5,2.33571292442385
6.55,2.45098262575433
6.6,2.5631704639196
6.65,2.67239136438578
6.7,2.7787597811595
6.75,2.88238935062026
6.8,2.98339259502778
6.85,3.08188054340959
6.9,3.17796250810688
6.95,3.27174577170928
7,3.36333535429155
7.05,3.45283379445258
7.1,3.54034100309222
7.15,3.62595404417232
7.2,3.70976701348743
7.25,3.79187093203269
7.3,3.87235368918693
7.35,3.95129990017444
7.4,4.0287908308065
7.45,4.10490447772876
7.5,4.17971546423463
7.55,4.25329498455067
7.6,4.32571101870466
7.65,4.39702804923896
7.7,4.46730730697858
7.75,4.5366067713753
7.8,4.60498122378015
7.85,4.67248217344404
7.9,4.7391580742209
7.95,4.80505432365138
8,4.87021332160537
8.05,4.93467456598379
8.1,4.99847463832484
8.15,5.06164740025052
8.2,5.12422395831913
8.25,5.18623280244471
8.3,5.24769978555197
8.35,5.30864832737
8.4,5.36909927380047
8.45,5.42907119549836
8.5,5.48858032146267
8.55,5.54764052213224
8.6,5.60626346659343
8.65,5.66445872484513
8.7,5.72223364968126
8.75,5.77959348375684
8.8,5.83654155773358
8.85,5.89307903037824
8.9,5.9492051550139
8.95,6.00491724487922
9,6.06021059790344
9.05,6.11507875765546
9.1,6.16951332609894
9.15,6.22350399210558
9.2,6.27703874054624
9.25,6.33010371696643
9.3,6.38268323343702
9.35,6.43475996389974
9.4,6.48631480955253
9.45,6.53732701585278
9.5,6.58777414978925
9.55,6.63763226274226
9.6,6.68687584432172
9.65,6.73547789143628
9.7,6.7834100804821
9.75,6.83064265887747
9.8,6.87714483547241
9.85,6.92288464722467
9.9,6.96782917206863
9.95,7.0119446892174
10,7.05519688493332
10.05,7.09755079483285
10.1,7.1389712875607
10.15,7.17942292132772
10.2,7.21887025141161
10.25,7.2572779217576
10.3,7.29461063374497
10.35,7.33083326763861
10.4,7.36591066072187
10.45,7.39980766582959
10.5,7.43248855003972
10.55,7.4639167189765
10.6,7.49405427029337
10.65,7.52286119614858
10.7,7.55029458339851
10.75,7.57630799318564
10.8,7.6008506434026
10.85,7.62386667230336
10.9,7.64529476104759
10.95,7.66506799835345
11,7.68311406371716
11.05,7.69935578551853
11.1,7.71371240434274
11.15,7.72610096202194
11.2,7.73643810171721
11.25,7.74464223526986
11.3,7.75063544014399
11.35,7.75434554349622
11.4,7.75570758249776
11.45,7.75466505052118
11.5,7.75117055448385
11.55,7.74518595368668
11.6,7.73668219480905
11.65,7.72563871767895
11.7,7.71204273732859
11.75,7.69588837367967
11.8,7.67717588159835
11.85,7.65591114648417
11.9,7.63210498606457
11.95,7.60577320586316
12,7.57693635897552
12.05,7.54562003231786
12.1,7.51185510348889
12.15,7.47567818447313
12.2,7.43713210734163
12.25,7.39626636077728
12.3,7.35313752009457
12.35,7.30780985853491
12.4,7.26035552134496
12.45,7.21085483459302
12.5,7.15939663401189
12.55,7.1060781551844
12.6,7.05100516594265
12.65,6.99429177916739
12.7,6.93606006228056
12.75,6.87643975647694
12.8,6.8155676252428
12.85,6.75358672445927
12.9,6.69064548998164
12.95,6.62689677402914
13,6.56249650406271
13.05,6.49760249846258
13.1,6.43237287370143
13.15,6.36696459786858
13.2,6.30153192391131
13.25,6.23622481320962
13.3,6.17118749102571
13.35,6.1065571275883
13.4,6.04246261720933
13.45,5.97902400544851
13.5,5.91635159448647
13.55,5.8545462596924
13.6,5.79369942557006
13.65,5.73389385020119
13.7,5.67520481695904
13.75,5.61770160582354
13.8,5.56144915738889
13.85,5.50651021771542
13.9,5.45294739033269
13.95,5.40082528496861
14,5.35021249310073
14.05,5.30118337842461
14.1,5.25381957694497
14.15,5.20821081643734
14.2,5.16445551996965
14.25,5.12266042767645
14.3,5.08294002964968
14.35,5.04541478712173
14.4,5.01020917308656
14.45,4.97744873567255
14.5,4.94725637872717
14.55,4.91974872298748
14.6,4.89503126464665
14.65,4.87319355692719
14.7,4.85430410704982
14.75,4.83840509122143
14.8,4.82550719357161
14.85,4.81558457944592
14.9,4.80857070185025
14.95,4.80435405719691
15,4.80277540609671
15.05,4.80362539601366
15.1,4.80664399305417
15.15,4.81152041245066
15.2,4.81789506563794
15.25,4.82536225420673
15.3,4.83347469653311
15.35,4.84174900868028
15.4,4.84967230656787
15.45,4.85670987320774
15.5,4.86231309697988
15.55,4.8659280907808
15.6,4.86700415860896
15.65,4.86500193903149
15.7,4.85940091500832
15.75,4.84970617978501
15.8,4.83545387124468
15.85,4.81621543959228
15.9,4.79160088846737
15.95,4.76125995446097
16,4.72488266862342
16.05,4.68219868871333
16.1,4.63297525593596
16.15,4.57701470138495
16.2,4.51415165927531
16.25,4.44424931595255
16.3,4.36719647749863
16.35,4.28290398330454
16.4,4.19130194996016
16.45,4.09233739467413
16.5,3.98597231598485
16.55,3.87218259469491
16.6,3.75095793045711
16.65,3.62230185826202
16.7,3.4862336919534
16.75,3.34279027131709
16.8,3.19202950242679
16.85,3.03403426873661
16.9,2.86891764590586
16.95,2.6968285437399
17,2.5179588152155
17.05,2.33255119722008
17.1,2.14090787345314
17.15,1.94339947763339
17.2,1.74047597642273
17.25,1.53267637450459
17.3,1.32063977951918
17.35,1.10511522057269
17.4,0.886971057461617
17.45,0.667202545278801
17.5,0.446936222286717
17.55,0.227430973273885
17.6,0.0100739239944552
17.65,-0.203630011737064
17.7,-0.412076773515855
17.75,-0.613589428334064
17.8,-0.806454158306313
17.85,-0.988963915529226
17.9,-1.15946971349031
17.95,-1.31643660071529
18,-1.45850030303085
