"Freq [GHz]","dB(St11) []"
0.45,-0.152495232872931
0.45225,-0.155750907992796
0.4545,-0.159080223446271
0.45675,-0.162485077389537
0.459,-0.165967423471622
0.46125,-0.169529272644087
0.4635,-0.173172695035635
0.46575,-0.176899821894128
0.468,-0.180712847598614
0.47025,-0.184614031744094
0.4725,-0.188605701301836
0.47475,-0.192690252858178
0.477,-0.196870154934891
0.47925,-0.201147950394271
0.4815,-0.205526258932266
0.48375,-0.210007779663114
0.486,-0.214595293799047
0.48825,-0.219291667428801
0.4905,-0.224099854398829
0.49275,-0.229022899301242
0.495,-0.2340639405727
0.49725,-0.239226213708618
0.4995,-0.24451305459723
0.50175,-0.24992790297828
0.504,-0.255474306031246
0.50625,-0.261155922098216
0.5085,-0.266976524546775
0.51075,-0.272940005778459
0.513,-0.279050381388481
0.51525,-0.28531179448284
0.5175,-0.291728520158943
0.51975,-0.29830497015633
0.522,-0.305045697684167
0.52425,-0.311955402432594
0.5265,-0.319038935775167
0.52875,-0.326301306169997
0.531,-0.333747684767484
0.53325,-0.34138341123276
0.5355,-0.349213999791439
0.53775,-0.357245145507415
0.54,-0.365482730801911
0.54225,-0.373932832223317
0.5445,-0.382601727477653
0.54675,-0.391495902729923
0.549,-0.400622060187006
0.55125,-0.409987125973095
0.5535,-0.419598258309104
0.55575,-0.42946285600793
0.558,-0.4395885672978
0.56025,-0.449983298986454
0.5625,-0.460655225979292
0.56475,-0.471612801165175
0.567,-0.48286476568386
0.56925,-0.494420159589777
0.5715,-0.506288332927108
0.57375,-0.518478957231766
0.576,-0.531002037476349
0.57825,-0.543867924474646
0.5805,-0.557087327762758
0.58275,-0.570671328974516
0.585,-0.58463139572929
0.58725,-0.598979396050954
0.5895,-0.613727613337134
0.59175,-0.628888761898559
0.594,-0.644476003088829
0.59625,-0.660502962045331
0.5985,-0.676983745062762
0.60075,-0.693932957621073
0.603,-0.711365723090216
0.60525,-0.729297702134615
0.6075,-0.747745112840731
0.60975,-0.766724751591538
0.612,-0.786254014712253
0.61425,-0.806350920912062
0.6165,-0.827034134546965
0.61875,-0.848322989729325
0.621,-0.870237515309969
0.62325,-0.892798460759149
0.6255,-0.916027322972789
0.62775,-0.939946374030928
0.63,-0.964578689935278
0.63225,-0.989948180353174
0.6345,-1.01607961939524
0.63675,-1.04299867745432
0.639,-1.07073195413319
0.64125,-1.09930701228864
0.6435,-1.12875241321978
0.64575,-1.15909775302788
0.648,-1.19037370017573
0.65025,-1.22261203427388
0.6525,-1.25584568612152
0.65475,-1.2901087790295
0.657,-1.32543667145317
0.65925,-1.36186600096292
0.6615,-1.39943472958011
0.66375,-1.43818219050692
0.666,-1.4781491362787
0.66825,-1.5193777883683
0.6705,-1.56191188827253
0.67275,-1.60579675011253
0.675,-1.65107931478095
0.67725,-1.6978082056711
0.6795,-1.74603378602592
0.68175,-1.79580821794733
0.684,-1.84718552311098
0.68625,-1.90022164523562
0.6885,-1.95497451436238
0.69075,-2.0115041130057
0.693,-2.06987254424591
0.69525,-2.1301441018427
0.6975,-2.19238534245987
0.69975,-2.25666516010424
0.702,-2.32305486289649
0.70425,-2.39162825230843
0.7065,-2.4624617050202
0.70875,-2.53563425757249
0.711,-2.61122769401334
0.71325,-2.68932663676575
0.7155,-2.77001864097284
0.71775,-2.85339429260952
0.72,-2.93954731068665
0.72225,-3.0285746539116
0.7245,-3.12057663221141
0.72675,-3.21565702356854
0.729,-3.31392319666512
0.73125,-3.41548623987832
0.7335,-3.52046109721659
0.73575,-3.62896671183111
0.738,-3.74112617777853
0.74025,-3.8570669007457
0.7425,-3.9769207684714
0.74475,-4.10082433161036
0.747,-4.22891899577233
0.74925,-4.3613512254293
0.7515,-4.49827276030279
0.75375,-4.63984084471111
0.756,-4.78621847015286
0.75825,-4.93757463110878
0.7605,-5.09408459362872
0.76275,-5.25593017569913
0.765,-5.42330003761005
0.76725,-5.5963899795007
0.7695,-5.77540324187743
0.77175,-5.96055080306815
0.774,-6.15205166516662
0.77625,-6.35013311686016
0.7785,-6.55503095739451
0.78075,-6.76698966052192
0.783,-6.98626245021262
0.78525,-7.2131112506886
0.7875,-7.44780646129973
0.78975,-7.6906264910462
0.792,-7.94185696703031
0.79425,-8.20178950432208
0.7965,-8.47071988972951
0.79875,-8.74894548629145
0.801,-9.03676160576456
0.80325,-9.33445651889259
0.8055,-9.64230467275538
0.80775,-9.96055755481566
0.81,-10.2894314772164
0.81225,-10.629091344619
0.8145,-10.9796292071306
0.81675,-11.3410360823192
0.819,-11.7131651603709
0.82125,-12.0956841040382
0.8235,-12.4880137719235
0.82575,-12.8892504386511
0.828,-13.298068663351
0.83025,-13.7126027235573
0.8325,-14.1303065535732
0.83475,-14.5477962310422
0.837,-14.9606862802999
0.83925,-15.3634423679634
0.8415,-15.7492884854789
0.84375,-16.1102243044333
0.846,-16.4372216770025
0.84825,-16.7206663526469
0.8505,-16.9510767805001
0.85275,-17.1200572095906
0.855,-17.2213391843453
0.85725,-17.2516769343442
0.8595,-17.2113477696453
0.86175,-17.1041023530166
0.864,-16.9365807759483
0.86625,-16.7173731946684
0.8685,-16.4559789200761
0.87075,-16.1618867652661
0.873,-15.8439040961439
0.87525,-15.5097616419358
0.8775,-15.1659534286307
0.87975,-14.8177434338274
0.882,-14.4692715384221
0.88425,-14.1237060826393
0.8865,-13.7834078782321
0.88875,-13.4500853824638
0.891,-13.1249312903936
0.89325,-12.8087374074064
0.8955,-12.5019883365797
0.89775,-12.2049362674237
0.9,-11.9176597648172
0.90225,-11.6401094566422
0.9045,-11.3721432300754
0.90675,-11.1135531543277
0.909,-10.8640859483836
0.91125,-10.6234584507174
0.9135,-10.3913692402505
0.91575,-10.1675073055324
0.918,-9.95155845718163
0.92025,-9.74321001950235
0.9225,-9.54215421314195
0.92475,-9.34809054463493
0.927,-9.16072744469888
0.92925,-8.97978334032457
0.9315,-8.80498730213085
0.93375,-8.63607937507709
0.936,-8.47281067506427
0.93825,-8.3149433143786
0.9405,-8.16225020393389
0.94275,-8.01451476877266
0.945,-7.87153060447232
0.94725,-7.73310109534113
0.9495,-7.5990390101027
0.95175,-7.46916608678885
0.954,-7.34331261551038
0.95625,-7.22131702543896
0.9585,-7.10302548054654
0.96075,-6.9882914872848
0.963,-6.87697551635018
0.96525,-6.76894463989434
0.9675,-6.66407218494854
0.96975,-6.56223740338843
0.972,-6.46332515843911
0.97425,-6.36722562748256
0.9765,-6.27383402075899
0.97875,-6.18305031543661
0.981,-6.09477900444542
0.98325,-6.00892885942308
0.9855,-5.9254127070951
0.98775,-5.84414721840389
0.99,-5.76505270970437
0.99225,-5.68805295535784
0.9945,-5.61307501107481
0.99675,-5.54004904738152
0.999,-5.46890819261194
1.00125,-5.39958838485502
1.0035,-5.33202823231663
1.00575,-5.26616888158449
1.008,-5.201953893314
1.01025,-5.13932912488032
1.0125,-5.07824261957031
1.01475,-5.01864450191326
1.017,-4.96048687877512
1.01925,-4.90372374586391
1.0215,-4.84831089931709
1.02375,-4.79420585206249
1.026,-4.7413677546641
1.02825,-4.68975732038323
1.0305,-4.63933675420239
1.03275,-4.59006968557617
1.035,-4.54192110468822
1.03725,-4.49485730200805
1.0395,-4.44884581095449
1.04175,-4.40385535348514
1.044,-4.35985578844272
1.04625,-4.31681806250014
1.0485,-4.27471416355584
1.05075,-4.23351707644088
1.053,-4.19320074080736
1.05525,-4.1537400110765
1.0575,-4.11511061833189
1.05975,-4.07728913405062
1.062,-4.04025293557178
1.06425,-4.00398017320769
1.0665,-3.96844973890918
1.06875,-3.93364123640149
1.071,-3.89953495271247
1.07325,-3.86611183101938
1.0755,-3.83335344474484
1.07775,-3.80124197283688
1.08,-3.76976017617149
1.08225,-3.73889137501995
1.0845,-3.70861942752626
1.08675,-3.67892870914356
1.089,-3.64980409298072
1.09125,-3.6212309310137
1.0935,-3.59319503611843
1.09575,-3.56568266488444
1.098,-3.5386805011708
1.10025,-3.51217564036809
1.1025,-3.48615557433198
1.10475,-3.46060817695599
1.107,-3.43552169035262
1.10925,-3.41088471161397
1.1115,-3.38668618012411
1.11375,-3.36291536539736
1.116,-3.33956185541762
1.11825,-3.3166155454555
1.1205,-3.29406662734113
1.12275,-3.27190557917141
1.125,-3.25012315543202
1.12725,-3.22871037751523
1.1295,-3.20765852461542
1.13175,-3.18695912498548
1.134,-3.16660394753777
1.13625,-3.14658499377433
1.1385,-3.12689449003174
1.14075,-3.10752488002677
1.143,-3.08846881768954
1.14525,-3.06971916027176
1.1475,-3.051268961718
1.14975,-3.03311146628876
1.152,-3.01524010242434
1.15425,-2.99764847683944
1.1565,-2.98033036883846
1.15875,-2.96327972484238
1.161,-2.94649065311811
1.16325,-2.92995741870199
1.1655,-2.91367443850927
1.16775,-2.8976362766219
1.17,-2.8818376397472
1.17225,-2.86627337284054
1.1745,-2.85093845488512
1.17675,-2.8358279948227
1.179,-2.82093722762899
1.18125,-2.80626151052791
1.1835,-2.7917963193393
1.18575,-2.77753724495452
1.188,-2.76347998993501
1.19025,-2.74962036522902
1.1925,-2.73595428700163
1.19475,-2.72247777357384
1.197,-2.70918694246644
1.19925,-2.69607800754445
1.2015,-2.68314727625845
1.20375,-2.67039114697892
1.206,-2.65780610642015
1.20825,-2.64538872715019
1.2105,-2.63313566518365
1.21275,-2.62104365765425
1.215,-2.60910952056401
1.21725,-2.59733014660635
1.2195,-2.58570250306019
1.22175,-2.57422362975264
1.224,-2.56289063708743
1.22625,-2.551700704137
1.2285,-2.54065107679564
1.23075,-2.52973906599167
1.233,-2.51896204595636
1.23525,-2.50831745254759
1.2375,-2.49780278162631
1.23975,-2.48741558748389
1.242,-2.47715348131853
1.24425,-2.46701412975896
1.2465,-2.45699525343381
1.24875,-2.44709462558504
1.251,-2.43731007072382
1.25325,-2.42763946332744
1.2555,-2.41808072657574
1.25775,-2.40863183112587
1.26,-2.39929079392377
1.26225,-2.39005567705137
1.2645,-2.38092458660818
1.26675,-2.37189567162603
1.269,-2.36296712301599
1.27125,-2.3541371725462
1.2735,-2.34540409184974
1.27575,-2.33676619146139
1.278,-2.3282218198824
1.28025,-2.31976936267234
1.2825,-2.311407241567
1.28475,-2.30313391362169
1.287,-2.29494787037893
1.28925,-2.28684763705979
1.2915,-2.27883177177817
1.29375,-2.27089886477707
1.296,-2.26304753768645
1.29825,-2.25527644280169
1.3005,-2.24758426238216
1.30275,-2.23996970796913
1.305,-2.23243151972258
1.30725,-2.22496846577611
1.3095,-2.21757934160949
1.31175,-2.21026296943828
1.314,-2.20301819761999
1.31625,-2.19584390007614
1.3185,-2.18873897572998
1.32075,-2.18170234795907
1.323,-2.17473296406253
1.32525,-2.16782979474232
1.3275,-2.16099183359821
1.32975,-2.15421809663601
1.332,-2.1475076217886
1.33425,-2.14085946844945
1.3365,-2.13427271701821
1.33875,-2.12774646845796
1.341,-2.12127984386385
1.34325,-2.11487198404274
1.3455,-2.10852204910348
1.34775,-2.10222921805767
1.35,-2.09599268843026
