"Freq [GHz]","dB(St11) []"
0.45,-0.100467550696375
0.45225,-0.102596509331306
0.4545,-0.104773272100363
0.45675,-0.10699906316018
0.459,-0.109275142487105
0.46125,-0.111602807058575
0.4635,-0.113983392077874
0.46575,-0.116418272244095
0.468,-0.118908863069047
0.47025,-0.121456622243112
0.4725,-0.124063051051923
0.47475,-0.126729695846094
0.477,-0.129458149565993
0.47925,-0.13225005332399
0.4815,-0.135107098046407
0.48375,-0.138031026177755
0.486,-0.141023633449744
0.48825,-0.144086770717815
0.4905,-0.147222345868
0.49275,-0.150432325797022
0.495,-0.153718738468765
0.49725,-0.157083675050239
0.4995,-0.160529292130498
0.50175,-0.164057814025923
0.504,-0.167671535175606
0.50625,-0.171372822630604
0.5085,-0.175164118641136
0.51075,-0.179047943345849
0.513,-0.183026897567567
0.51525,-0.187103665720086
0.5175,-0.191281018830812
0.51975,-0.195561817684228
0.522,-0.199949016091468
0.52425,-0.204445664291399
0.5265,-0.209054912489038
0.52875,-0.213780014537201
0.531,-0.218624331767707
0.53325,-0.223591336978692
0.5355,-0.228684618584844
0.53775,-0.233907884937808
0.54,-0.239264968824203
0.54225,-0.244759832149145
0.5445,-0.250396570813469
0.54675,-0.256179419793287
0.549,-0.262112758430825
0.55125,-0.268201115945997
0.5535,-0.274449177178562
0.55575,-0.280861788571127
0.558,-0.287443964403847
0.56025,-0.294200893292043
0.5625,-0.301137944958573
0.56475,-0.308260677293299
0.567,-0.31557484371257
0.56925,-0.323086400832214
0.5715,-0.330801516468214
0.57375,-0.338726577979798
0.576,-0.346868200970468
0.57825,-0.355233238363069
0.5805,-0.363828789865871
0.58275,-0.372662211847271
0.585,-0.381741127637661
0.58725,-0.391073438277711
0.5895,-0.400667333733297
0.59175,-0.410531304598131
0.594,-0.420674154306143
0.59625,-0.43110501187659
0.5985,-0.441833345215975
0.60075,-0.452868975001795
0.603,-0.464222089174343
0.60525,-0.475903258063866
0.6075,-0.487923450181543
0.60975,-0.500294048704085
0.612,-0.513026868682821
0.61425,-0.526134175009655
0.6165,-0.539628701173459
0.61875,-0.553523668841946
0.621,-0.5678328083055
0.62325,-0.582570379820845
0.6255,-0.59775119589404
0.62775,-0.613390644543799
0.63,-0.629504713587703
0.63225,-0.646110015995589
0.6345,-0.663223816355999
0.63675,-0.680864058503316
0.639,-0.699049394354945
0.64125,-0.71779921400969
0.6435,-0.737133677160246
0.64575,-0.757073745874597
0.648,-0.777641218802921
0.65025,-0.798858766868515
0.6525,-0.820749970503118
0.65475,-0.843339358488921
0.657,-0.866652448471477
0.65925,-0.890715789209657
0.6615,-0.915557004630704
0.66375,-0.941204839760389
0.666,-0.967689208600247
0.66825,-0.995041244025747
0.6705,-1.02329334978128
0.67275,-1.05247925464974
0.675,-1.08263406887655
0.67725,-1.11379434292983
0.6795,-1.14599812868058
0.68175,-1.17928504308895
0.684,-1.21369633448433
0.68625,-1.24927495153014
0.6885,-1.28606561496561
0.69075,-1.32411489222037
0.693,-1.36347127499979
0.69525,-1.40418525994271
0.6975,-1.44630943245633
0.69975,-1.48989855383741
0.702,-1.53500965179332
0.70425,-1.58170211448203
0.7065,-1.63003778819632
0.70875,-1.68008107882498
0.711,-1.73189905723244
0.71325,-1.78556156870843
0.7155,-1.84114134665164
0.71775,-1.89871413066548
0.72,-1.95835878926098
0.72225,-2.02015744738182
0.7245,-2.08419561898982
0.72675,-2.15056234497649
0.729,-2.21935033669835
0.73125,-2.29065612547076
0.7335,-2.36458021839827
0.73575,-2.44122726096913
0.738,-2.52070620689909
0.74025,-2.60313049577492
0.7425,-2.6886182391233
0.74475,-2.77729241561492
0.747,-2.86928107620982
0.74925,-2.96471756015682
0.7515,-3.06374072287921
0.75375,-3.16649517691106
0.756,-3.27313154719254
0.75825,-3.38380674218953
0.7605,-3.49868424247017
0.76275,-3.61793440854807
0.765,-3.74173480998369
0.76725,-3.87027057791931
0.7695,-4.00373478339924
0.77175,-4.14232884398708
0.774,-4.28626296132013
0.77625,-4.43575659231833
0.7785,-4.59103895676279
0.78075,-4.75234958384013
0.783,-4.91993889996194
0.78525,-5.09406885964369
0.7875,-5.27501362037035
0.78975,-5.46306026105833
0.792,-5.65850954177082
0.79425,-5.86167669951967
0.7965,-6.07289227096933
0.79875,-6.2925029272061
0.801,-6.52087229784871
0.80325,-6.75838175082665
0.8055,-7.00543107900933
0.80775,-7.26243902396786
0.81,-7.5298435383388
0.81225,-7.80810164855594
0.8145,-8.09768872500257
0.81675,-8.39909689121143
0.819,-8.7128321997296
0.82125,-9.03941005882506
0.8235,-9.37934819650157
0.82575,-9.73315617620333
0.828,-10.10132010536
0.83025,-10.4842806688645
0.8325,-10.8824019318473
0.83475,-11.2959274412314
0.837,-11.7249189685041
0.83925,-12.1691717585423
0.8415,-12.6280984406575
0.84375,-13.1005720591534
0.846,-13.5847176073225
0.84825,-14.0776423203843
0.8505,-14.5751003065538
0.85275,-15.0711010875281
0.855,-15.5575002449286
0.85725,-16.0236595272678
0.8595,-16.4563331280999
0.86175,-16.8400070539222
0.864,-17.1579358087015
0.86625,-17.3939998020216
0.8685,-17.5351892313016
0.87075,-17.5740892046065
0.873,-17.510479664537
0.87525,-17.3513747529579
0.8775,-17.1094841737908
0.87975,-16.8007492987407
0.882,-16.4418426365743
0.88425,-16.048274433619
0.8865,-15.6333195119699
0.88875,-15.2076511698063
0.891,-14.7794397518236
0.89325,-14.354686436572
0.8955,-13.9376320452901
0.89775,-13.5311507091
0.9,-13.1370884159149
0.90225,-12.7565359168182
0.9045,-12.3900399970023
0.90675,-12.0377627326547
0.909,-11.6995993659017
0.91125,-11.3752644104159
0.9135,-11.0643539130681
0.91575,-10.7663900817549
0.918,-10.4808529993212
0.92025,-10.207202943333
0.9225,-9.94489590514535
0.92475,-9.69339420479045
0.927,-9.45217358209321
0.92925,-9.22072776590606
0.9315,-8.99857124738346
0.93375,-8.78524078266626
0.936,-8.58029600484512
0.93825,-8.38331941955879
0.9405,-8.19391598205988
0.94275,-8.01171239805204
0.945,-7.83635625028526
0.94725,-7.66751502361031
0.9495,-7.50487507991628
0.95175,-7.34814061892219
0.954,-7.1970326495829
0.95625,-7.05128798875175
0.9585,-6.91065829788382
0.96075,-6.77490916435538
0.963,-6.64381923097386
0.96525,-6.51717937513293
0.9675,-6.39479193759224
0.96975,-6.27646999985492
0.972,-6.16203670845108
0.97425,-6.05132464401701
0.9765,-5.94417523281838
0.97875,-5.84043819825113
0.981,-5.73997104982657
0.98325,-5.64263860718308
0.9855,-5.54831255674135
0.98775,-5.45687103872334
0.99,-5.36819826237305
0.99225,-5.28218414734328
0.9945,-5.19872398934236
0.99675,-5.11771814826318
0.999,-5.0390717571418
1.00125,-4.96269445041339
1.0035,-4.88850011004702
1.00575,-4.81640662824817
1.008,-4.74633568551856
1.01025,-4.6782125429564
1.0125,-4.61196584776666
1.01475,-4.54752745103202
1.017,-4.48483223686862
1.01925,-4.42381796215938
1.0215,-4.36442510612061
1.02375,-4.30659672901511
1.026,-4.25027833937839
1.02825,-4.19541776917331
1.0305,-4.14196505633291
1.03275,-4.08987233419262
1.035,-4.03909372735074
1.03725,-3.98958525353028
1.0395,-3.94130473104764
1.04175,-3.89421169152215
1.044,-3.8482672974879
1.04625,-3.80343426459358
1.0485,-3.75967678809876
1.05075,-3.71696047339614
1.053,-3.67525227030816
1.05525,-3.63452041092451
1.0575,-3.59473435076277
1.05975,-3.5558647130502
1.062,-3.51788323593802
1.06425,-3.48076272247246
1.0665,-3.44447699315912
1.06875,-3.40900084096737
1.071,-3.37430998863259
1.07325,-3.34038104812257
1.0755,-3.30719148214372
1.07775,-3.27471956757053
1.08,-3.24294436068916
1.08225,-3.21184566415328
1.0845,-3.18140399555628
1.08675,-3.15160055753047
1.089,-3.122417209289
1.09125,-3.09383643953191
1.0935,-3.06584134064195
1.09575,-3.038415584101
1.098,-3.01154339706157
1.10025,-2.98520954001192
1.1025,-2.95939928547732
1.10475,-2.93409839770284
1.107,-2.90929311326665
1.10925,-2.88497012257568
1.1115,-2.8611165521982
1.11375,-2.8377199479906
1.116,-2.81476825897797
1.11825,-2.79224982195059
1.1205,-2.77015334674017
1.12275,-2.74846790214226
1.125,-2.72718290245256
1.12725,-2.70628809458706
1.1295,-2.68577354575732
1.13175,-2.66562963167396
1.134,-2.64584702525274
1.13625,-2.62641668579909
1.1385,-2.60732984864818
1.14075,-2.5885780152389
1.143,-2.57015294360115
1.14525,-2.55204663923716
1.1475,-2.53425134637821
1.14975,-2.51675953959945
1.152,-2.49956391577621
1.15425,-2.48265738636603
1.1565,-2.46603307000159
1.15875,-2.44968428538035
1.161,-2.43360454443745
1.16325,-2.41778754578913
1.1655,-2.4022271684346
1.16775,-2.38691746570471
1.17,-2.37185265944661
1.17225,-2.35702713443391
1.1745,-2.34243543299249
1.17675,-2.32807224983249
1.179,-2.31393242707756
1.18125,-2.30001094948281
1.1835,-2.2863029398334
1.18575,-2.27280365451592
1.188,-2.25950847925538
1.19025,-2.24641292501055
1.1925,-2.23351262402119
1.19475,-2.22080332600068
1.197,-2.20828089446795
1.19925,-2.19594130321302
1.2015,-2.18378063289049
1.20375,-2.17179506773584
1.206,-2.15998089239933
1.20825,-2.14833448889299
1.2105,-2.13685233364568
1.21275,-2.1255309946623
1.215,-2.11436712878262
1.21725,-2.10335747903591
1.2195,-2.09249887208747
1.22175,-2.0817882157735
1.224,-2.07122249672067
1.22625,-2.06079877804723
1.2285,-2.05051419714234
1.23075,-2.0403659635206
1.233,-2.03035135674887
1.23525,-2.02046772444264
1.2375,-2.01071248032912
1.23975,-2.00108310237468
1.242,-1.99157713097406
1.24425,-1.98219216719902
1.2465,-1.97292587110423
1.24875,-1.96377596008827
1.251,-1.9547402073075
1.25325,-1.94581644014103
1.2555,-1.93700253870487
1.25775,-1.92829643441326
1.26,-1.91969610858562
1.26225,-1.91119959109747
1.2645,-1.90280495907349
1.26675,-1.89451033562151
1.269,-1.88631388860562
1.27125,-1.87821382945729
1.2735,-1.87020841202288
1.27575,-1.86229593144646
1.278,-1.85447472308649
1.28025,-1.84674316146537
1.2825,-1.83909965925048
1.28475,-1.83154266626578
1.287,-1.82407066853282
1.28925,-1.81668218734018
1.2915,-1.80937577834028
1.29375,-1.80215003067279
1.296,-1.79500356611345
1.29825,-1.78793503824773
1.3005,-1.7809431316683
1.30275,-1.77402656119557
1.305,-1.76718407112051
1.30725,-1.76041443446898
1.3095,-1.75371645228694
1.31175,-1.74708895294575
1.314,-1.74053079146694
1.31625,-1.73404084886582
1.3185,-1.7276180315133
1.32075,-1.7212612705153
1.323,-1.71496952110931
1.32525,-1.70874176207727
1.3275,-1.70257699517465
1.32975,-1.6964742445748
1.332,-1.6904325563284
1.33425,-1.68445099783736
1.3365,-1.67852865734275
1.33875,-1.67266464342644
1.341,-1.66685808452575
1.34325,-1.66110812846109
1.3455,-1.65541394197579
1.34775,-1.64977471028812
1.35,-1.64418963665479
