"Freq [GHz]","dB(St11) []"
0.45,-0.134668562125538
0.45225,-0.137503866944563
0.4545,-0.14040255479105
0.45675,-0.143366225999208
0.459,-0.146396526882817
0.46125,-0.149495151214949
0.4635,-0.152663841760109
0.46575,-0.155904391860933
0.468,-0.159218647081412
0.47025,-0.162608506908939
0.4725,-0.166075926517352
0.47475,-0.169622918593397
0.477,-0.173251555229042
0.47925,-0.1769639698822
0.4815,-0.180762359408529
0.48375,-0.184648986167087
0.486,-0.188626180202703
0.48825,-0.192696341508098
0.4905,-0.196861942368857
0.49275,-0.201125529794515
0.495,-0.205489728039145
0.49725,-0.209957241214967
0.4995,-0.214530856002675
0.50175,-0.219213444462242
0.504,-0.224007966948262
0.50625,-0.228917475133887
0.5085,-0.233945115147745
0.51075,-0.23909413082826
0.513,-0.244367867100077
0.51525,-0.249769773477458
0.5175,-0.255303407699674
0.51975,-0.260972439503691
0.522,-0.266780654539601
0.52425,-0.27273195843453
0.5265,-0.278830381010903
0.52875,-0.285080080665308
0.531,-0.291485348914297
0.53325,-0.298050615113874
0.5355,-0.304780451359569
0.53775,-0.311679577574357
0.54,-0.318752866791888
0.54225,-0.326005350642885
0.5445,-0.333442225052812
0.54675,-0.341068856159228
0.549,-0.348890786457636
0.55125,-0.356913741184913
0.5535,-0.365143634949803
0.55575,-0.373586578620282
0.558,-0.382248886478016
0.56025,-0.391137083650535
0.5625,-0.400257913832071
0.56475,-0.409618347304509
0.567,-0.419225589270279
0.56925,-0.429087088509452
0.5715,-0.439210546373783
0.57375,-0.449603926130863
0.576,-0.460275462672057
0.57825,-0.471233672598349
0.5805,-0.482487364698758
0.58275,-0.494045650836417
0.585,-0.50591795725805
0.58725,-0.518114036342932
0.5895,-0.530643978808159
0.59175,-0.543518226387375
0.594,-0.556747585000877
0.59625,-0.570343238435374
0.5985,-0.584316762552403
0.60075,-0.598680140044824
0.603,-0.613445775761545
0.60525,-0.628626512621028
0.6075,-0.64423564813483
0.60975,-0.660286951562931
0.612,-0.676794681723192
0.61425,-0.693773605477806
0.6165,-0.711239016920215
0.61875,-0.729206757286418
0.621,-0.747693235615227
0.62325,-0.766715450182395
0.6255,-0.786291010734164
0.62775,-0.806438161546168
0.63,-0.827175805334054
0.63225,-0.848523528042684
0.6345,-0.870501624541045
0.63675,-0.893131125250448
0.639,-0.916433823733827
0.64125,-0.940432305274313
0.6435,-0.96514997647136
0.64575,-0.99061109588306
0.648,-1.01684080574325
0.65025,-1.04386516478231
0.6525,-1.07171118218038
0.65475,-1.10040685268207
0.657,-1.12998119290123
0.65925,-1.16046427884496
0.6615,-1.19188728468518
0.66375,-1.22428252280672
0.666,-1.25768348516018
0.66825,-1.29212488594817
0.6705,-1.32764270567301
0.67275,-1.36427423657439
0.675,-1.40205812948502
0.67725,-1.44103444213293
0.6795,-1.48124468891884
0.68175,-1.52273189219778
0.684,-1.56554063509461
0.68625,-1.60971711588401
0.6885,-1.65530920396697
0.69075,-1.70236649747688
0.693,-1.75094038255131
0.69525,-1.80108409430745
0.6975,-1.85285277956303
0.69975,-1.90630356134862
0.702,-1.96149560526218
0.70425,-2.01849018772279
0.7065,-2.07735076618788
0.70875,-2.1381430514068
0.711,-2.2009350817934
0.71325,-2.26579730001237
0.7155,-2.33280263188702
0.71775,-2.40202656775203
0.72,-2.47354724639201
0.72225,-2.54744554172625
0.7245,-2.62380515242263
0.72675,-2.70271269464752
0.729,-2.78425779818602
0.73125,-2.86853320619588
0.7335,-2.9556348788903
0.73575,-3.04566210147826
0.738,-3.13871759672628
0.74025,-3.23490764254192
0.7425,-3.33434219501508
0.74475,-3.43713501738859
0.747,-3.5434038154614
0.74925,-3.65327037995503
0.7515,-3.76686073639246
0.75375,-3.88430530304603
0.756,-4.00573905750105
0.75825,-4.1313017123485
0.7605,-4.26113790045574
0.76275,-4.39539737015754
0.765,-4.5342351905466
0.76725,-4.67781196680823
0.7695,-4.82629406521195
0.77175,-4.97985384691925
0.774,-5.13866990915075
0.77625,-5.30292733143491
0.7785,-5.47281792356996
0.78075,-5.64854047049674
0.783,-5.83030096739977
0.78525,-6.0183128359001
0.7875,-6.21279710900773
0.78975,-6.41398256834759
0.792,-6.62210581178084
0.79425,-6.83741122254641
0.7965,-7.06015080197405
0.79875,-7.29058381605165
0.801,-7.52897619086658
0.80325,-7.77559957214378
0.8055,-8.03072993842685
0.80775,-8.29464562415755
0.81,-8.56762456578109
0.81225,-8.84994052821522
0.8145,-9.14185799703489
0.81675,-9.44362532920021
0.819,-9.75546563693633
0.82125,-10.0775647296347
0.8235,-10.410055251406
0.82575,-10.7529959222067
0.828,-11.1063445166878
0.83025,-11.4699229033144
0.8325,-11.8433721387915
0.83475,-12.2260953203286
0.837,-12.6171857419027
0.83925,-13.0153380634023
0.8415,-13.4187409904715
0.84375,-13.8249518553333
0.846,-14.2307571576963
0.84825,-14.6320293837031
0.8505,-15.0235999759919
0.85275,-15.3991811689307
0.855,-15.7513836936828
0.85725,-16.0718879763534
0.8595,-16.3518241014552
0.86175,-16.5823887534976
0.864,-16.7556681494865
0.86625,-16.8655527434695
0.8685,-16.908553834615
0.87075,-16.8843105734997
0.873,-16.7956393922512
0.87525,-16.6481108362647
0.8775,-16.4492791393197
0.87975,-16.207770422256
0.882,-15.9324295319731
0.88425,-15.6316569627362
0.8865,-15.3129823050835
0.88875,-14.9828552826645
0.891,-14.6466021934591
0.89325,-14.3084891949902
0.8955,-13.9718427614506
0.89775,-13.6391917350089
0.9,-13.3124087572523
0.90225,-12.9928391222974
0.9045,-12.6814119689896
0.90675,-12.3787328517535
0.909,-12.0851589190049
0.91125,-11.8008588942938
0.9135,-11.5258603145111
0.91575,-11.260086369323
0.918,-11.0033844107237
0.92025,-10.7555478758812
0.9225,-10.5163330492865
0.92475,-10.2854718080731
0.927,-10.0626812558531
0.92925,-9.84767095506438
0.9315,-9.64014831109352
0.93375,-9.43982253744302
0.936,-9.24640753402622
0.93825,-9.0596239349921
0.9405,-8.87920052379534
0.94275,-8.70487516784083
0.945,-8.53639538999211
0.94725,-8.37351866719952
0.9495,-8.21601252565855
0.95175,-8.0636544858285
0.954,-7.91623189823791
0.95625,-7.7735417014287
0.9585,-7.63539012599873
0.96075,-7.5015923629919
0.963,-7.37197221047425
0.96525,-7.24636170872587
0.9675,-7.12460077184692
0.96975,-7.00653682154536
0.972,-6.89202442730813
0.97425,-6.78092495595404
0.9765,-6.67310623264215
0.97875,-6.56844221470404
0.981,-6.4668126791303
0.98325,-6.36810292413644
0.9855,-6.27220348492853
0.98775,-6.17900986356419
0.99,-6.08842227264018
0.99225,-6.00034539242094
0.9945,-5.91468814094168
0.99675,-5.83136345656714
0.999,-5.75028809245517
1.00125,-5.67138242235912
1.0035,-5.59457025719943
1.00575,-5.51977867184032
1.008,-5.44693784151955
1.01025,-5.37598088739569
1.0125,-5.30684373069716
1.01475,-5.23946495497911
1.017,-5.1737856760172
1.01925,-5.1097494188908
1.0215,-5.04730200183178
1.02375,-4.9863914264384
1.026,-4.92696777387651
1.02825,-4.86898310671218
1.0305,-4.81239137604118
1.03275,-4.75714833360086
1.035,-4.70321144856914
1.03725,-4.65053982877364
1.0395,-4.59909414605096
1.04175,-4.54883656551261
1.044,-4.49973067848927
1.04625,-4.45174143893907
1.0485,-4.40483510311961
1.05075,-4.35897917233536
1.053,-4.31414233858448
1.05525,-4.27029443293972
1.0575,-4.22740637650846
1.05975,-4.1854501338267
1.062,-4.14439866855081
1.06425,-4.10422590131894
1.0665,-4.0649066696625
1.06875,-4.02641668985466
1.071,-3.98873252059042
1.07325,-3.95183152839875
1.0755,-3.91569185469338
1.07775,-3.88029238437454
1.08,-3.84561271589916
1.08225,-3.81163313274163
1.0845,-3.7783345761724
1.08675,-3.74569861928536
1.089,-3.71370744220923
1.09125,-3.68234380844205
1.0935,-3.65159104225125
1.09575,-3.62143300708476
1.098,-3.59185408494247
1.10025,-3.56283915665938
1.1025,-3.53437358305507
1.10475,-3.50644318690646
1.107,-3.47903423570315
1.10925,-3.45213342514711
1.1115,-3.42572786336016
1.11375,-3.39980505576526
1.116,-3.37435289060882
1.11825,-3.34935962509366
1.1205,-3.32481387209315
1.12275,-3.30070458741946
1.125,-3.27702105761939
1.12725,-3.25375288827346
1.1295,-3.23088999277464
1.13175,-3.20842258156451
1.134,-3.18634115180592
1.13625,-3.16463647747212
1.1385,-3.14329959983332
1.14075,-3.12232181832287
1.143,-3.10169468176576
1.14525,-3.0814099799534
1.1475,-3.06145973554917
1.14975,-3.04183619631004
1.152,-3.02253182761044
1.15425,-3.00353930525505
1.1565,-2.98485150856791
1.15875,-2.96646151374592
1.161,-2.94836258746524
1.16325,-2.9305481807298
1.1655,-2.91301192295145
1.16775,-2.89574761625207
1.17,-2.87874922997814
1.17225,-2.86201089541876
1.1745,-2.84552690071883
1.17675,-2.8292916859789
1.179,-2.81329983853433
1.18125,-2.79754608840602
1.1835,-2.78202530391583
1.18575,-2.76673248746001
1.188,-2.75166277143396
1.19025,-2.73681141430245
1.1925,-2.72217379680927
1.19475,-2.70774541832074
1.197,-2.6935218932978
1.19925,-2.67949894789144
1.2015,-2.66567241665665
1.20375,-2.65203823938027
1.206,-2.63859245801809
1.20825,-2.62533121373714
1.2105,-2.61225074405893
1.21275,-2.59934738009972
1.215,-2.58661754390421
1.21725,-2.5740577458689
1.2195,-2.56166458225176
1.22175,-2.54943473276493
1.224,-2.53736495824726
1.22625,-2.52545209841371
1.2285,-2.51369306967866
1.23075,-2.50208486305042
1.233,-2.49062454209427
1.23525,-2.47930924096138
1.2375,-2.46813616248133
1.23975,-2.45710257631582
1.242,-2.44620581717116
1.24425,-2.43544328306771
1.2465,-2.42481243366389
1.24875,-2.41431078863294
1.251,-2.40393592609046
1.25325,-2.39368548107095
1.2555,-2.38355714405151
1.25775,-2.37354865952108
1.26,-2.36365782459359
1.26225,-2.3538824876634
1.2645,-2.3442205471016
1.26675,-2.33466994999175
1.269,-2.3252286909035
1.27125,-2.31589481070305
1.2735,-2.30666639539887
1.27575,-2.29754157502171
1.278,-2.28851852253747
1.28025,-2.27959545279206
1.2825,-2.27077062148687
1.28475,-2.26204232418402
1.287,-2.25340889534033
1.28925,-2.24486870736888
1.2915,-2.23642016972744
1.29375,-2.22806172803275
1.296,-2.21979186319974
1.29825,-2.211609090605
1.3005,-2.20351195927348
1.30275,-2.1954990510879
1.305,-2.18756898001985
1.30725,-2.17972039138208
1.3095,-2.17195196110119
1.31175,-2.16426239501
1.314,-2.15665042815906
1.31625,-2.14911482414663
1.3185,-2.14165437446651
1.32075,-2.13426789787318
1.323,-2.12695423976362
1.32525,-2.11971227157545
1.3275,-2.11254089020059
1.32975,-2.10543901741422
1.332,-2.0984055993184
1.33425,-2.09143960579993
1.3365,-2.08454003000191
1.33875,-2.07770588780886
1.341,-2.07093621734452
1.34325,-2.06423007848236
1.3455,-2.05758655236819
1.34775,-2.05100474095449
1.35,-2.04448376654623
