"Freq [GHz]","dB(St11) []"
0.45,-0.122653132894374
0.45225,-0.125290944677083
0.4545,-0.127989165432441
0.45675,-0.130749375473568
0.459,-0.133573202329748
0.46125,-0.136462322333618
0.4635,-0.139418462267559
0.46575,-0.142443401071782
0.468,-0.14553897161652
0.47025,-0.148707062541052
0.4725,-0.151949620162236
0.47475,-0.155268650455456
0.477,-0.158666221110928
0.47925,-0.162144463668556
0.4815,-0.165705575734504
0.48375,-0.169351823282974
0.486,-0.173085543046684
0.48825,-0.176909144999798
0.4905,-0.180825114937153
0.49275,-0.184836017153858
0.495,-0.18894449722947
0.49725,-0.193153284921192
0.4995,-0.197465197170698
0.50175,-0.201883141229396
0.504,-0.206410117907178
0.50625,-0.211049224949946
0.5085,-0.215803660551359
0.51075,-0.220676727004619
0.513,-0.225671834500232
0.51525,-0.230792505076091
0.5175,-0.236042376726379
0.51975,-0.241425207676192
0.522,-0.246944880829033
0.52425,-0.252605408394641
0.5265,-0.258410936705019
0.52875,-0.264365751226809
0.531,-0.270474281778557
0.53325,-0.276741107961836
0.5355,-0.283170964815487
0.53775,-0.289768748702805
0.54,-0.296539523441796
0.54225,-0.303488526689203
0.5445,-0.31062117658935
0.54675,-0.317943078699514
0.549,-0.32546003320388
0.55125,-0.333178042428789
0.5535,-0.341103318672541
0.55575,-0.349242292363535
0.558,-0.357601620561214
0.56025,-0.366188195814879
0.5625,-0.375009155396108
0.56475,-0.384071890921211
0.567,-0.39338405838084
0.56925,-0.402953588594678
0.5715,-0.412788698109807
0.57375,-0.422897900562259
0.576,-0.433290018522029
0.57825,-0.443974195842658
0.5805,-0.454959910537504
0.58275,-0.466256988205596
0.585,-0.477875616031018
0.58725,-0.48982635738077
0.5895,-0.502120167026954
0.59175,-0.51476840702035
0.594,-0.52778286324338
0.59625,-0.541175762671668
0.5985,-0.55495979137455
0.60075,-0.569148113285972
0.603,-0.583754389778538
0.60525,-0.598792800074683
0.6075,-0.614278062530111
0.60975,-0.630225456826101
0.612,-0.646650847108458
0.61425,-0.663570706112303
0.6165,-0.681002140313295
0.61875,-0.698962916147143
0.621,-0.717471487340823
0.62325,-0.736547023400227
0.6255,-0.756209439300488
0.62775,-0.776479426426565
0.63,-0.797378484813283
0.63225,-0.818928956735306
0.6345,-0.841154061699145
0.63675,-0.864077932890618
0.639,-0.887725655132796
0.64125,-0.912123304410711
0.6435,-0.937297989020812
0.64575,-0.963277892404349
0.648,-0.990092317725409
0.65025,-1.01777173425581
0.6525,-1.0463478256303
0.65475,-1.07585354003714
0.657,-1.10632314241043
0.65925,-1.13779226869203
0.6615,-1.17029798223241
0.66375,-1.2038788324014
0.666,-1.23857491548116
0.66825,-1.27442793791572
0.6705,-1.31148128199304
0.67275,-1.34978007403781
0.675,-1.38937125519518
0.67725,-1.43030365488859
0.6795,-1.47262806703747
0.68175,-1.5163973291244
0.684,-1.56166640420489
0.68625,-1.60849246595826
0.6885,-1.65693498688328
0.69075,-1.70705582974905
0.693,-1.75891934241959
0.69525,-1.81259245617985
0.6975,-1.86814478770204
0.69975,-1.92564874480425
0.702,-1.98517963616894
0.70425,-2.04681578520679
0.7065,-2.11063864827334
0.70875,-2.17673293747013
0.711,-2.24518674829161
0.71325,-2.31609169241271
0.7155,-2.38954303595088
0.71775,-2.46563984358126
0.72,-2.54448512893524
0.72225,-2.62618601177118
0.7245,-2.71085388247271
0.72675,-2.79860457450533
0.729,-2.88955854554669
0.73125,-2.9838410681003
0.7335,-3.08158243050748
0.73575,-3.18291814938793
0.738,-3.28798919466566
0.74025,-3.39694222847396
0.7425,-3.50992985937937
0.74475,-3.62711091351916
0.747,-3.74865072440677
0.74925,-3.87472144332135
0.7515,-4.00550237235541
0.75375,-4.14118032234081
0.756,-4.2819499979967
0.75825,-4.42801441272913
0.7605,-4.57958533553892
0.76275,-4.73688377243624
0.765,-4.90014048457631
0.76725,-5.0695965449731
0.7695,-5.24550393504459
0.77175,-5.4281261813038
0.774,-5.61773903110726
0.77625,-5.81463116433889
0.7785,-6.01910493501199
0.78075,-6.23147713270662
0.783,-6.4520797481
0.78525,-6.68126071902267
0.7875,-6.91938462269724
0.78975,-7.16683326502103
0.792,-7.42400609747006
0.79425,-7.69132036441683
0.7965,-7.96921084559991
0.79875,-8.25812900635127
0.801,-8.55854129674642
0.80325,-8.87092624290569
0.8055,-9.19576983942712
0.80775,-9.53355856803276
0.81,-9.88476911606206
0.81225,-10.2498535258399
0.8145,-10.6292180419804
0.81675,-11.0231933016169
0.819,-11.4319926917512
0.82125,-11.8556546424244
0.8235,-12.2939633237125
0.82575,-12.7463407284163
0.828,-13.2117016694383
0.83025,-13.6882623415973
0.8325,-14.1732939263125
0.83475,-14.662817376961
0.837,-15.1512475438899
0.83925,-15.6310191541269
0.8415,-16.0922688472242
0.84375,-16.522706683443
0.846,-16.907872611532
0.84825,-17.2319960298569
0.8505,-17.4795896979307
0.85275,-17.6376560844697
0.855,-17.6980127158278
0.85725,-17.6589694902561
0.8595,-17.5256880217829
0.86175,-17.3090686450219
0.864,-17.0236313455397
0.86625,-16.6851694085423
0.8685,-16.3088291653195
0.87075,-15.9079082191528
0.873,-15.4933392274964
0.87525,-15.0736639033095
0.8775,-14.6552822777016
0.87975,-14.2428129724566
0.882,-13.8394640470408
0.88425,-13.4473645514342
0.8865,-13.0678389758801
0.88875,-12.7016239644132
0.891,-12.3490342649831
0.89325,-12.010087188209
0.8955,-11.6845945844803
0.89775,-11.3722300720192
0.9,-11.0725777362769
0.90225,-10.7851671183718
0.9045,-10.5094981373979
0.90675,-10.2450586633806
0.909,-9.9913367468073
0.91125,-9.74782897696715
0.9135,-9.51404604563521
0.91575,-9.28951630151337
0.918,-9.07378786764286
0.92025,-8.86642973826641
0.9225,-8.66703215798734
0.92475,-8.47520650318113
0.927,-8.290584825134
0.92925,-8.11281917022737
0.9315,-7.94158076023452
0.93375,-7.7765590922254
0.936,-7.61746100035233
0.93825,-7.4640097092069
0.9405,-7.31594389925915
0.94275,-7.17301679820551
0.945,-7.03499530720264
0.94725,-6.90165916746033
0.9495,-6.77280017015651
0.95175,-6.64822141085258
0.954,-6.52773658834021
0.95625,-6.41116934699384
0.9585,-6.29835266113381
0.96075,-6.18912825954377
0.963,-6.08334608807552
0.96525,-5.98086380817173
0.9675,-5.88154632911132
0.96975,-5.78526537180893
0.972,-5.69189906206312
0.97425,-5.60133155123465
0.9765,-5.51345266243667
0.97875,-5.42815756042807
0.981,-5.3453464435122
0.98325,-5.26492425585533
0.9855,-5.18680041874779
0.98775,-5.11088857943597
0.99,-5.03710637625304
0.99225,-4.96537521887091
0.9945,-4.89562008258426
0.99675,-4.82776931562033
0.999,-4.76175445854493
1.00125,-4.69751007490671
1.0035,-4.63497359232703
1.00575,-4.57408515330464
1.008,-4.51478747505945
1.01025,-4.4570257177922
1.0125,-4.40074736078384
1.01475,-4.34590208580251
1.017,-4.29244166732604
1.01925,-4.240319869125
1.0215,-4.18949234678504
1.02375,-4.13991655577888
1.026,-4.09155166472671
1.02825,-4.04435847351019
1.0305,-3.9982993359298
1.03275,-3.95333808661729
1.035,-3.90943997193576
1.03725,-3.86657158461889
1.0395,-3.82470080191818
1.04175,-3.78379672704316
1.044,-3.74382963369476
1.04625,-3.70477091350502
1.0485,-3.66659302620982
1.05075,-3.62926945239244
1.053,-3.59277464864685
1.05525,-3.55708400501963
1.0575,-3.52217380459854
1.05975,-3.48802118512475
1.062,-3.45460410251316
1.06425,-3.42190129617319
1.0665,-3.38989225602898
1.06875,-3.35855719114422
1.071,-3.32787699986316
1.07325,-3.29783324138453
1.0755,-3.26840810869026
1.07775,-3.23958440275588
1.08,-3.21134550797358
1.08225,-3.18367536872361
1.0845,-3.15655846703282
1.08675,-3.12997980126351
1.089,-3.10392486577855
1.09125,-3.07837963153229
1.0935,-3.05333052753946
1.09575,-3.02876442317702
1.098,-3.00466861127687
1.10025,-2.98103079196911
1.1025,-2.95783905723838
1.10475,-2.93508187615768
1.107,-2.9127480807659
1.10925,-2.89082685255754
1.1115,-2.8693077095545
1.11375,-2.84818049393166
1.116,-2.82743536016932
1.11825,-2.80706276370739
1.1205,-2.78705345007699
1.12275,-2.7673984444871
1.125,-2.74808904184448
1.12725,-2.7291167971866
1.1295,-2.71047351650831
1.13175,-2.69215124796378
1.134,-2.67414227342656
1.13625,-2.65643910039118
1.1385,-2.63903445420062
1.14075,-2.62192127058499
1.143,-2.6050926884972
1.14525,-2.58854204323224
1.1475,-2.57226285981762
1.14975,-2.55624884666245
1.152,-2.54049388945421
1.15425,-2.52499204529189
1.1565,-2.50973753704534
1.15875,-2.49472474793091
1.161,-2.47994821629406
1.16325,-2.4654026305898
1.1655,-2.45108282455276
1.16775,-2.43698377254849
1.17,-2.42310058509848
1.17225,-2.40942850457146
1.1745,-2.39596290103397
1.17675,-2.38269926825351
1.179,-2.36963321984805
1.18125,-2.35676048557554
1.1835,-2.34407690775786
1.18575,-2.33157843783367
1.188,-2.3192611330347
1.19025,-2.30712115318067
1.1925,-2.29515475758786
1.19475,-2.28335830208681
1.197,-2.27172823614479
1.19925,-2.26026110008881
1.2015,-2.24895352242505
1.20375,-2.2378022172512
1.206,-2.22680398175765
1.20825,-2.21595569381434
1.2105,-2.20525430963975
1.21275,-2.19469686154892
1.215,-2.18428045577735
1.21725,-2.17400227037796
1.2195,-2.16385955318814
1.22175,-2.15384961986443
1.224,-2.14396985198198
1.22625,-2.13421769519658
1.2285,-2.12459065746674
1.23075,-2.11508630733361
1.233,-2.10570227225661
1.23525,-2.09643623700257
1.2375,-2.08728594208656
1.23975,-2.07824918226234
1.242,-2.06932380506075
1.24425,-2.06050770937413
1.2465,-2.05179884408518
1.24875,-2.04319520673865
1.251,-2.0346948422543
1.25325,-2.02629584167956
1.2555,-2.0179963409806
1.25775,-2.00979451987032
1.26,-2.00168860067204
1.26225,-1.99367684721751
1.2645,-1.98575756377822
1.26675,-1.97792909402855
1.269,-1.97018982003995
1.27125,-1.96253816130486
1.2735,-1.95497257378946
1.27575,-1.94749154901414
1.278,-1.94009361316089
1.28025,-1.93277732620649
1.2825,-1.92554128108084
1.28475,-1.91838410284937
1.287,-1.91130444791892
1.28925,-1.90430100326609
1.2915,-1.89737248568747
1.29375,-1.89051764107098
1.296,-1.88373524368755
1.29825,-1.87702409550257
1.3005,-1.87038302550641
1.30275,-1.86381088906333
1.305,-1.85730656727832
1.30725,-1.8508689663812
1.3095,-1.84449701712735
1.31175,-1.83818967421474
1.314,-1.83194591571653
1.31625,-1.82576474252887
1.3185,-1.81964517783341
1.32075,-1.81358626657398
1.323,-1.80758707494707
1.32525,-1.8016466899057
1.3275,-1.79576421867616
1.32975,-1.78993878828732
1.332,-1.78416954511212
1.33425,-1.77845565442078
1.3365,-1.7727962999455
1.33875,-1.76719068345621
1.341,-1.76163802434705
1.34325,-1.75613755923334
1.3455,-1.75068854155857
1.34775,-1.74529024121133
1.35,-1.73994194415169
