"Freq [GHz]","dB(St11) []"
0.45,-0.104172834808284
0.45225,-0.106226544473688
0.4545,-0.108321817158429
0.45675,-0.110459593607445
0.459,-0.112640838506623
0.46125,-0.114866541157364
0.4635,-0.117137716172028
0.46575,-0.119455404190862
0.468,-0.121820672621201
0.47025,-0.124234616399655
0.4725,-0.126698358778024
0.47475,-0.129213052133792
0.477,-0.131779878805991
0.47925,-0.134400051957267
0.4815,-0.137074816463068
0.48375,-0.139805449828867
0.486,-0.142593263136317
0.48825,-0.145439602019382
0.4905,-0.148345847671394
0.49275,-0.151313417884155
0.495,-0.154343768120092
0.49725,-0.157438392618652
0.4995,-0.160598825538067
0.50175,-0.163826642133713
0.504,-0.16712345997429
0.50625,-0.170490940197137
0.5085,-0.173930788803994
0.51075,-0.177444757998627
0.513,-0.181034647567709
0.51525,-0.184702306306477
0.5175,-0.188449633490685
0.51975,-0.192278580396412
0.522,-0.196191151869455
0.52425,-0.200189407945883
0.5265,-0.204275465525642
0.52875,-0.208451500100945
0.531,-0.212719747541369
0.53325,-0.217082505937607
0.5355,-0.221542137505886
0.53775,-0.226101070555174
0.54,-0.230761801519274
0.54225,-0.235526897056106
0.5445,-0.240398996216455
0.54675,-0.24538081268458
0.549,-0.250475137093173
0.55125,-0.255684839415198
0.5535,-0.261012871435289
0.55575,-0.266462269303416
0.558,-0.272036156173636
0.56025,-0.277737744930886
0.5625,-0.283570341008796
0.56475,-0.289537345301645
0.567,-0.295642257173705
0.56925,-0.301888677569264
0.5715,-0.30828031222677
0.57375,-0.314820975000638
0.576,-0.321514591294394
0.57825,-0.328365201608882
0.5805,-0.335376965209465
0.58275,-0.342554163916218
0.585,-0.349901206021238
0.58725,-0.357422630337332
0.5895,-0.365123110382509
0.59175,-0.373007458704721
0.594,-0.381080631351607
0.59625,-0.38934773248993
0.5985,-0.397814019179716
0.60075,-0.406484906308111
0.603,-0.415365971688194
0.60525,-0.424462961328072
0.6075,-0.433781794875781
0.60975,-0.443328571245606
0.612,-0.45310957443164
0.61425,-0.463131279514466
0.6165,-0.473400358867078
0.61875,-0.483923688566273
0.621,-0.494708355015833
0.62325,-0.505761661788057
0.6255,-0.517091136690288
0.62775,-0.528704539063217
0.63,-0.540609867317896
0.63225,-0.552815366718544
0.6345,-0.565329537418337
0.63675,-0.578161142755465
0.639,-0.591319217816968
0.64125,-0.604813078277832
0.6435,-0.618652329523039
0.64575,-0.632846876060353
0.648,-0.647406931231591
0.65025,-0.662343027230449
0.6525,-0.677666025434734
0.65475,-0.693387127061125
0.657,-0.709517884150561
0.65925,-0.726070210892315
0.6615,-0.74305639529494
0.66375,-0.760489111212188
0.666,-0.778381430732001
0.66825,-0.796746836936663
0.6705,-0.815599237042067
0.67275,-0.834952975924086
0.675,-0.85482285003978
0.67725,-0.875224121751204
0.6795,-0.896172534059269
0.68175,-0.917684325755096
0.684,-0.939776246995942
0.68625,-0.962465575312645
0.6885,-0.985770132055298
0.69075,-1.00970829928342
0.693,-1.03429903710683
0.69525,-1.05956190148291
0.6975,-1.08551706247554
0.69975,-1.11218532298092
0.702,-1.1395881379247
0.70425,-1.16774763393463
0.7065,-1.19668662949256
0.70875,-1.22642865556906
0.711,-1.25699797674344
0.71325,-1.28841961281179
0.7155,-1.32071936088477
0.71775,-1.35392381797697
0.72,-1.38806040408888
0.72225,-1.42315738578232
0.7245,-1.45924390024995
0.72675,-1.49634997987909
0.729,-1.53450657731011
0.73125,-1.57374559098937
0.7335,-1.61409989121717
0.73575,-1.65560334669086
0.738,-1.69829085154413
0.74025,-1.74219835288387
0.7425,-1.78736287882678
0.74475,-1.83382256703903
0.747,-1.88161669378375
0.74925,-1.93078570348255
0.7515,-1.98137123879958
0.75375,-2.03341617125894
0.756,-2.08696463240916
0.75825,-2.14206204555195
0.7605,-2.19875515805603
0.76275,-2.25709207428176
0.765,-2.31712228914679
0.76725,-2.37889672236919
0.7695,-2.44246775343025
0.77175,-2.5078892573069
0.774,-2.57521664103064
0.77625,-2.64450688113899
0.7785,-2.71581856209392
0.78075,-2.78921191575228
0.783,-2.86474886198257
0.78525,-2.94249305053433
0.7875,-3.02250990427676
0.78975,-3.1048666639353
0.792,-3.18963243446575
0.79425,-3.27687823321717
0.7965,-3.36667704004483
0.79875,-3.4591038495438
0.801,-3.55423572558155
0.80325,-3.65215185831229
0.8055,-3.75293362385802
0.80775,-3.85666464683749
0.81,-3.96343086591556
0.81225,-4.07332060252832
0.8145,-4.18642463291273
0.81675,-4.30283626352968
0.819,-4.42265140991484
0.82125,-4.54596867891605
0.8235,-4.67288945417681
0.82575,-4.80351798459499
0.828,-4.9379614753175
0.83025,-5.07633018061639
0.8325,-5.21873749771799
0.83475,-5.36530006031072
0.837,-5.51613783002228
0.83925,-5.67137418361069
0.8415,-5.8311359929322
0.84375,-5.99555369389658
0.846,-6.16476133955967
0.84825,-6.33889663118098
0.8505,-6.51810091943056
0.85275,-6.70251916588354
0.855,-6.89229985239804
0.85725,-7.08759482280916
0.8595,-7.28855903743872
0.86175,-7.4953502160293
0.864,-7.70812833862801
0.86625,-7.92705496638226
0.8685,-8.15229233480897
0.87075,-8.38400216042409
0.873,-8.62234408713677
0.87525,-8.8674736808821
0.8775,-9.11953985882634
0.87975,-9.37868161224623
0.882,-9.64502384886805
0.88425,-9.91867213999728
0.8865,-10.1997061091485
0.88875,-10.4881711412914
0.891,-10.7840680249921
0.89325,-11.0873400644718
0.8955,-11.3978571177581
0.89775,-11.7153959368678
0.9,-12.0396161181116
0.90225,-12.3700309355351
0.9045,-12.7059723615203
0.90675,-13.0465497273206
0.909,-13.3906018187561
0.91125,-13.7366428435475
0.9135,-14.0828037803937
0.91575,-14.4267722744222
0.918,-14.7657366032129
0.92025,-15.0963423207323
0.9225,-15.4146737686211
0.92475,-15.7162760700539
0.927,-15.9962352245141
0.92925,-16.2493325987062
0.9315,-16.4702832843937
0.93375,-16.6540540029917
0.936,-16.7962362512614
0.93825,-16.8934285811413
0.9405,-16.9435661468088
0.94275,-16.9461345098873
0.945,-16.9022226386603
0.94725,-16.814403465041
0.9495,-16.6864679960559
0.95175,-16.5230673273089
0.954,-16.3293272977968
0.95625,-16.1104927750949
0.9585,-15.8716393543245
0.96075,-15.6174683904516
0.963,-15.3521834251241
0.96525,-15.0794350794209
0.9675,-14.8023170605537
0.96975,-14.5233961707296
0.972,-14.2447619617981
0.97425,-13.9680852803814
0.9765,-13.6946783843629
0.97875,-13.4255521205667
0.981,-13.1614677260638
0.98325,-12.9029822248448
0.9855,-12.6504872782585
0.98775,-12.4042418572462
0.99,-12.1643993600538
0.99225,-11.9310298941274
0.9945,-11.7041384409945
0.99675,-11.4836795718878
0.999,-11.269569307307
1.00125,-11.061694632233
1.0035,-10.8599210995585
1.00575,-10.6640988821752
1.008,-10.4740675709473
1.01025,-10.2896599618233
1.0125,-10.1107050300628
1.01475,-9.93703025204928
1.017,-9.76846340437896
1.01925,-9.60483394481926
1.0215,-9.44597405935975
1.02375,-9.29171944310612
1.026,-9.14190986947673
1.02825,-8.99638959145196
1.0305,-8.85500761001011
1.03275,-8.71761783795236
1.035,-8.58407918174475
1.03725,-8.45425555952423
1.0395,-8.32801586980998
1.04175,-8.20523392256174
1.044,-8.08578834189318
1.04625,-7.9695624478697
1.0485,-7.85644412330729
1.05075,-7.74632567027143
1.053,-7.63910365999325
1.05525,-7.53467877913122
1.0575,-7.43295567466955
1.05975,-7.33384279923342
1.062,-7.2372522581899
1.06425,-7.14309965957276
1.0665,-7.05130396760482
1.06875,-6.96178736037978
1.071,-6.87447509209652
1.07325,-6.78929536010471
1.0755,-6.70617917691427
1.07775,-6.62506024723769
1.08,-6.54587485006932
1.08225,-6.46856172575493
1.0845,-6.39306196796655
1.08675,-6.31931892046879
1.089,-6.24727807854143
1.09125,-6.17688699490819
1.0935,-6.10809519001157
1.09575,-6.04085406646713
1.098,-5.97511682752795
1.10025,-5.9108383993889
1.1025,-5.84797535716179
1.10475,-5.78648585435503
1.107,-5.72632955569517
1.10925,-5.6674675731323
1.1115,-5.60986240487619
1.11375,-5.55347787731579
1.116,-5.49827908968044
1.11825,-5.44423236130675
1.1205,-5.39130518138144
1.12275,-5.33946616103607
1.125,-5.28868498767534
1.12725,-5.23893238142671
1.1295,-5.19018005360401
1.13175,-5.14240066708372
1.134,-5.09556779849731
1.13625,-5.04965590214803
1.1385,-5.00464027556552
1.14075,-4.96049702661591
1.143,-4.91720304208951
1.14525,-4.8747359576922
1.1475,-4.83307412937069
1.14975,-4.79219660590542
1.152,-4.75208310270837
1.15425,-4.71271397676653
1.1565,-4.67407020267468
1.15875,-4.63613334970445
1.161,-4.59888555985916
1.16325,-4.56230952686664
1.1655,-4.52638847606517
1.16775,-4.49110614513928
1.17,-4.45644676566521
1.17225,-4.42239504542738
1.1745,-4.38893615146963
1.17675,-4.35605569384651
1.179,-4.32373971004206
1.18125,-4.29197465002491
1.1835,-4.26074736191028
1.18575,-4.23004507820105
1.188,-4.19985540258122
1.19025,-4.17016629723674
1.1925,-4.14096607067973
1.19475,-4.11224336605341
1.197,-4.08398714989624
1.19925,-4.05618670134474
1.2015,-4.02883160175555
1.20375,-4.00191172472821
1.206,-3.97541722651107
1.20825,-3.94933853677367
1.2105,-3.9236663497295
1.21275,-3.89839161559416
1.215,-3.87350553236448
1.21725,-3.84899953790475
1.2195,-3.82486530232713
1.22175,-3.80109472065365
1.224,-3.77767990574812
1.22625,-3.75461318150644
1.2285,-3.73188707629465
1.23075,-3.70949431662445
1.233,-3.68742782105628
1.23525,-3.66568069432078
1.2375,-3.64424622164947
1.23975,-3.62311786330646
1.242,-3.60228924931267
1.24425,-3.58175417435517
1.2465,-3.56150659287395
1.24875,-3.54154061431922
1.251,-3.52185049857232
1.25325,-3.50243065152397
1.2555,-3.48327562080341
1.25775,-3.46438009165282
1.26,-3.44573888294113
1.26225,-3.4273469433119
1.2645,-3.40919934746018
1.26675,-3.39129129253323
1.269,-3.37361809465052
1.27125,-3.35617518553835
1.2735,-3.33895810927487
1.27575,-3.32196251914125
1.278,-3.30518417457502
1.28025,-3.28861893822185
1.2825,-3.27226277308199
1.28475,-3.25611173974799
1.287,-3.24016199373021
1.28925,-3.22440978286706
1.2915,-3.20885144481668
1.29375,-3.19348340462732
1.296,-3.17830217238338
1.29825,-3.16330434092451
1.3005,-3.14848658363513
1.30275,-3.13384565230179
1.305,-3.11937837503608
1.30725,-3.10508165426064
1.3095,-3.09095246475617
1.31175,-3.07698785176726
1.314,-3.06318492916489
1.31625,-3.04954087766385
1.3185,-3.03605294309298
1.32075,-3.02271843471652
1.323,-3.00953472360477
1.32525,-2.99649924105245
1.3275,-2.98360947704303
1.32975,-2.97086297875763
1.332,-2.95825734912684
1.33425,-2.94579024542412
1.3365,-2.93345937789935
1.33875,-2.92126250845131
1.341,-2.90919744933754
1.34325,-2.89726206192071
1.3455,-2.88545425545003
1.34775,-2.87377198587673
1.35,-2.86221325470229
