"Freq [GHz]","dB(St11) []"
0.45,-0.168366623661261
0.45225,-0.172100219306711
0.4545,-0.175922866629839
0.45675,-0.179837000020431
0.459,-0.183845129804717
0.46125,-0.187949844900907
0.4635,-0.192153815577135
0.46575,-0.196459796316008
0.468,-0.20087062879025
0.47025,-0.205389244954037
0.4725,-0.210018670254917
0.47475,-0.214762026971338
0.477,-0.219622537681066
0.47925,-0.224603528866034
0.4815,-0.229708434659347
0.48375,-0.234940800740456
0.486,-0.240304288384797
0.48825,-0.24580267867442
0.4905,-0.251439876876436
0.49275,-0.257219916996481
0.495,-0.263146966514552
0.49725,-0.269225331311087
0.4995,-0.275459460791355
0.50175,-0.281853953216662
0.504,-0.288413561251184
0.50625,-0.295143197733721
0.5085,-0.302047941683956
0.51075,-0.30913304455332
0.513,-0.31640393673093
0.51525,-0.323866234315575
0.5175,-0.331525746165179
0.51975,-0.339388481235633
0.522,-0.34746065622149
0.52425,-0.355748703511433
0.5265,-0.364259279472067
0.52875,-0.372999273074163
0.531,-0.381975814875986
0.53325,-0.391196286379119
0.5355,-0.400668329772652
0.53775,-0.410399858082469
0.54,-0.420399065742844
0.54225,-0.430674439608512
0.5445,-0.441234770425883
0.54675,-0.452089164783033
0.549,-0.463247057558759
0.55125,-0.474718224891856
0.5535,-0.486512797692652
0.55575,-0.49864127571961
0.558,-0.511114542244784
0.56025,-0.523943879332797
0.5625,-0.537140983758957
0.56475,-0.550717983593066
0.567,-0.564687455476533
0.56925,-0.579062442621317
0.5715,-0.593856473560394
0.57375,-0.609083581680311
0.576,-0.624758325567686
0.57825,-0.64089581020238
0.5805,-0.657511709031386
0.58275,-0.674622286958404
0.585,-0.692244424285384
0.58725,-0.710395641643333
0.5895,-0.729094125950906
0.59175,-0.748358757440435
0.594,-0.768209137792202
0.59625,-0.788665619418961
0.5985,-0.809749335943831
0.60075,-0.83148223391584
0.603,-0.853887105808579
0.60525,-0.876987624348514
0.6075,-0.900808378220664
0.60975,-0.925374909200416
0.612,-0.950713750761393
0.61425,-0.976852468210284
0.6165,-1.00381970040073
0.61875,-1.03164520307926
0.621,-1.06035989391736
0.62325,-1.0899958992849
0.6255,-1.12058660282097
0.62775,-1.15216669585936
0.63,-1.18477222976696
0.63225,-1.21844067025453
0.6345,-1.25321095372033
0.63675,-1.2891235456885
0.639,-1.32622050140559
0.64125,-1.36454552866001
0.6435,-1.40414405289115
0.64575,-1.44506328465708
0.648,-1.48735228953196
0.65025,-1.53106206050769
0.6525,-1.57624559297727
0.65475,-1.62295796238186
0.657,-1.67125640460842
0.65925,-1.72120039923056
0.6615,-1.77285175569258
0.66375,-1.82627470254478
0.666,-1.88153597984837
0.66825,-1.93870493487993
0.6705,-1.99785362127942
0.67275,-2.05905690180225
0.675,-2.12239255485493
0.67725,-2.18794138501639
0.6795,-2.25578733777324
0.68175,-2.32601761872729
0.684,-2.39872281756865
0.68625,-2.47399703714749
0.6885,-2.55193802802371
0.69075,-2.63264732892531
0.693,-2.71623041360558
0.69525,-2.80279684465549
0.6975,-2.89246043490227
0.69975,-2.98533941710799
0.702,-3.08155662277426
0.70425,-3.18123967096004
0.7065,-3.28452116813025
0.70875,-3.39153892017231
0.711,-3.50243615784542
0.71325,-3.61736177706268
0.7155,-3.73647059554625
0.71775,-3.85992362753808
0.72,-3.98788837838961
0.72225,-4.12053916098572
0.7245,-4.2580574360745
0.72675,-4.40063217866203
0.729,-4.5484602726758
0.73125,-4.70174693607963
0.7335,-4.86070617850944
0.73575,-5.0255612932536
0.738,-5.19654538497432
0.74025,-5.37390193388728
0.7425,-5.5578853960942
0.74475,-5.74876183827512
0.747,-5.94680960282464
0.74925,-6.15231999653959
0.7515,-6.36559799182971
0.75375,-6.58696292372294
0.756,-6.81674915811775
0.75825,-7.05530669604875
0.7605,-7.30300166415569
0.76275,-7.56021662168833
0.765,-7.82735058733861
0.76725,-8.10481865236871
0.7695,-8.39305099634216
0.77175,-8.69249105341115
0.774,-9.00359248394107
0.77625,-9.32681447928134
0.7785,-9.66261475460886
0.78075,-10.0114393498835
0.783,-10.3737080410574
0.78525,-10.7497937362711
0.7875,-11.1399936631907
0.78975,-11.5444894099069
0.792,-11.9632919348318
0.79425,-12.3961665077474
0.7965,-12.842531246734
0.79875,-13.3013216792479
0.801,-13.7708130679602
0.80325,-14.2483931031595
0.8055,-14.7302818113884
0.80775,-15.2112061762488
0.81,-15.6840582043215
0.81225,-16.1396011897595
0.8145,-16.5663400205945
0.81675,-16.9507257891836
0.819,-17.2778884914012
0.82125,-17.533026168584
0.8235,-17.7033730103241
0.82575,-17.7803503155662
0.828,-17.7612398944476
0.83025,-17.6497462372593
0.8325,-17.4552147734062
0.83475,-17.1908273347182
0.837,-16.8714407932554
0.83925,-16.511698936773
0.8415,-16.1247570952847
0.84375,-15.7216517518423
0.846,-15.3111666848247
0.84825,-14.900001375376
0.8505,-14.4930797583979
0.85275,-14.0938929282101
0.855,-13.7048183059942
0.85725,-13.3273910835541
0.8595,-12.9625228729508
0.86175,-12.6106717840382
0.864,-12.2719716485969
0.86625,-11.9463286064145
0.8685,-11.6334924352779
0.87075,-11.3331087359255
0.873,-11.0447568010385
0.87525,-10.7679768773706
0.8775,-10.5022896190414
0.87975,-10.2472098184702
0.882,-10.0022559593402
0.88425,-9.76695672940135
0.8865,-9.54085532894224
0.88875,-9.323512187842
0.891,-9.11450654012622
0.89325,-8.91343718455027
0.8955,-8.71992267139374
0.89775,-8.53360109083851
0.9,-8.35412959073544
0.90225,-8.18118371663282
0.9045,-8.01445664127601
0.90675,-7.85365833192407
0.909,-7.69851468996856
0.91125,-7.54876668715649
0.9135,-7.40416951525179
0.91575,-7.26449176050243
0.918,-7.12951461029339
0.92025,-6.99903109647155
0.9225,-6.87284537774353
0.92475,-6.75077206205963
0.927,-6.63263556885059
0.92925,-6.51826953026271
0.9315,-6.40751623005477
0.93375,-6.30022607851227
0.936,-6.19625712155445
0.93825,-6.09547458212069
0.9405,-5.99775043189886
0.94275,-5.90296299148091
0.945,-5.8109965570838
0.94725,-5.72174105204768
0.9495,-5.63509170141026
0.95175,-5.55094872794977
0.954,-5.4692170681854
0.95625,-5.38980610692146
0.9585,-5.31262942901595
0.96075,-5.2376045871463
0.963,-5.16465288443223
0.96525,-5.09369917085889
0.9675,-5.02467165252112
0.96975,-4.95750171278289
0.972,-4.89212374451379
0.97425,-4.8284749926277
0.9765,-4.76649540620732
0.97875,-4.70612749955244
0.981,-4.64731622153982
0.98325,-4.59000883272861
0.9855,-4.53415478968808
0.98775,-4.47970563606325
0.99,-4.42661489993031
0.99225,-4.37483799702698
0.9945,-4.32433213947334
0.99675,-4.27505624962698
0.999,-4.22697087874218
1.00125,-4.18003813012669
1.0035,-4.1342215865116
1.00575,-4.08948624137016
1.008,-4.04579843393996
1.01025,-4.00312578772012
1.0125,-3.96143715223112
1.01475,-3.92070254783937
1.017,-3.88089311346231
1.01925,-3.84198105698228
1.0215,-3.80393960820893
1.02375,-3.76674297424076
1.026,-3.73036629708605
1.02825,-3.69478561341295
1.0305,-3.65997781630658
1.03275,-3.62592061891934
1.035,-3.59259251990741
1.03725,-3.55997277055385
1.0395,-3.52804134348428
1.04175,-3.49677890288767
1.044,-3.46616677615977
1.04625,-3.43618692689188
1.0485,-3.40682192913266
1.05075,-3.37805494285451
1.053,-3.34986969056084
1.05525,-3.32225043497383
1.0575,-3.29518195774607
1.05975,-3.26864953914284
1.062,-3.2426389386449
1.06425,-3.2171363764244
1.0665,-3.19212851564947
1.06875,-3.1676024455755
1.071,-3.14354566538337
1.07325,-3.11994606872758
1.0755,-3.09679192895857
1.07775,-3.07407188498632
1.08,-3.05177492775351
1.08225,-3.02989038728862
1.0845,-3.00840792031078
1.08675,-2.98731749835991
1.089,-2.96660939642678
1.09125,-2.94627418205941
1.0935,-2.92630270492309
1.09575,-2.90668608679274
1.098,-2.88741571195743
1.10025,-2.86848321801774
1.1025,-2.84988048705797
1.10475,-2.83159963717579
1.107,-2.81363301435302
1.10925,-2.7959731846522
1.1115,-2.77861292672383
1.11375,-2.76154522461071
1.116,-2.74476326083579
1.11825,-2.72826040976104
1.1205,-2.71203023120528
1.12275,-2.69606646430965
1.125,-2.68036302163969
1.12725,-2.66491398351391
1.1295,-2.64971359254891
1.13175,-2.63475624841171
1.134,-2.62003650277044
1.13625,-2.60554905443479
1.1385,-2.59128874467843
1.14075,-2.57725055273525
1.143,-2.56342959146261
1.14525,-2.54982110316422
1.1475,-2.5364204555661
1.14975,-2.52322313793937
1.152,-2.51022475736374
1.15425,-2.49742103512577
1.1565,-2.48480780324668
1.15875,-2.47238100113412
1.161,-2.46013667235316
1.16325,-2.44807096151141
1.1655,-2.43618011125393
1.16775,-2.42446045936339
1.17,-2.41290843596132
1.17225,-2.40152056080647
1.1745,-2.39029344068643
1.17675,-2.37922376689883
1.179,-2.36830831281864
1.18125,-2.35754393154824
1.1835,-2.34692755364691
1.18575,-2.33645618493692
1.188,-2.32612690438303
1.19025,-2.31593686204272
1.1925,-2.30588327708445
1.19475,-2.2959634358713
1.197,-2.2861746901076
1.19925,-2.27651445504608
1.2015,-2.26698020775341
1.20375,-2.25756948543179
1.206,-2.24827988379462
1.20825,-2.23910905549421
1.2105,-2.23005470859959
1.21275,-2.22111460512264
1.215,-2.21228655959065
1.21725,-2.20356843766382
1.2195,-2.19495815479581
1.22175,-2.18645367493607
1.224,-2.17805300927213
1.22625,-2.16975421501075
1.2285,-2.16155539419627
1.23075,-2.15345469256497
1.233,-2.14545029843415
1.23525,-2.1375404416247
1.2375,-2.12972339241593
1.23975,-2.12199746053164
1.242,-2.11436099415622
1.24425,-2.10681237897985
1.2465,-2.09935003727169
1.24875,-2.09197242698015
1.251,-2.08467804085937
1.25325,-2.07746540562085
1.2555,-2.07033308110954
1.25775,-2.06327965950351
1.26,-2.05630376453632
1.26225,-2.04940405074148
1.2645,-2.04257920271813
1.26675,-2.03582793441726
1.269,-2.0291489884479
1.27125,-2.02254113540243
1.2735,-2.01600317320056
1.27575,-2.00953392645124
1.278,-2.00313224583198
1.28025,-1.99679700748502
1.2825,-1.9905271124298
1.28475,-1.9843214859911
1.287,-1.97817907724259
1.28925,-1.97209885846499
1.2915,-1.96607982461868
1.29375,-1.96012099283006
1.296,-1.95422140189137
1.29825,-1.94838011177354
1.3005,-1.94259620315151
1.30275,-1.93686877694194
1.305,-1.93119695385259
1.30725,-1.92557987394321
1.3095,-1.9200166961976
1.31175,-1.91450659810637
1.314,-1.90904877526022
1.31625,-1.9036424409533
1.3185,-1.89828682579646
1.32075,-1.89298117734
1.323,-1.88772475970571
1.32525,-1.88251685322788
1.3275,-1.8773567541031
1.32975,-1.87224377404841
1.332,-1.86717723996786
1.33425,-1.86215649362685
1.3365,-1.85718089133444
1.33875,-1.8522498036331
1.341,-1.84736261499576
1.34325,-1.8425187235301
1.3455,-1.83771754068971
1.34775,-1.83295849099194
1.35,-1.82824101174242
