"Freq [GHz]","dB(St11) []"
0.45,-0.156583873983995
0.45225,-0.160052836109176
0.4545,-0.16360442394492
0.45675,-0.167240898596825
0.459,-0.170964591880418
0.46125,-0.174777908805543
0.4635,-0.178683330157307
0.46575,-0.182683415177634
0.468,-0.186780804351726
0.47025,-0.190978222303818
0.4725,-0.195278480806898
0.47475,-0.199684481911267
0.477,-0.204199221196929
0.47925,-0.208825791155179
0.4815,-0.213567384704913
0.48375,-0.21842729884939
0.486,-0.223408938479572
0.48825,-0.228515820330267
0.4905,-0.233751577095773
0.49275,-0.239119961711832
0.495,-0.244624851811196
0.49725,-0.250270254360237
0.4995,-0.256060310484597
0.50175,-0.261999300492019
0.504,-0.268091649101019
0.50625,-0.274341930884356
0.5085,-0.28075487593675
0.51075,-0.287335375776613
0.513,-0.294088489492121
0.51525,-0.301019450142309
0.5175,-0.308133671424416
0.51975,-0.315436754619223
0.522,-0.322934495826557
0.52425,-0.330632893503832
0.5265,-0.338538156320904
0.52875,-0.346656711345248
0.531,-0.354995212571981
0.53325,-0.363560549813999
0.5355,-0.372359857968053
0.53775,-0.381400526673382
0.54,-0.390690210380204
0.54225,-0.40023683884611
0.5445,-0.410048628079233
0.54675,-0.420134091747821
0.549,-0.430502053076723
0.55125,-0.44116165725214
0.5535,-0.45212238435699
0.55575,-0.46339406285999
0.558,-0.47498688368274
0.56025,-0.486911414869931
0.5625,-0.499178616888933
0.56475,-0.511799858586032
0.567,-0.524786933827708
0.56925,-0.538152078856481
0.5715,-0.551907990391986
0.57375,-0.566067844509195
0.576,-0.580645316326856
0.57825,-0.595654600540511
0.5805,-0.611110432835789
0.58275,-0.627028112218863
0.585,-0.643423524302428
0.58725,-0.660313165586839
0.5895,-0.677714168777453
0.59175,-0.695644329180618
0.594,-0.714122132222231
0.59625,-0.733166782134115
0.5985,-0.752798231855012
0.60075,-0.77303721419439
0.603,-0.793905274308788
0.60525,-0.815424803541756
0.6075,-0.837619074680117
0.60975,-0.860512278680492
0.612,-0.884129562921725
0.61425,-0.908497071040046
0.6165,-0.933641984405479
0.61875,-0.959592565299155
0.621,-0.986378201852821
0.62325,-1.01402945481306
0.6255,-1.04257810619412
0.62775,-1.07205720988471
0.63,-1.10250114427522
0.63225,-1.13394566697352
0.6345,-1.1664279716785
0.63675,-1.19998674728214
0.639,-1.23466223927214
0.64125,-1.27049631350898
0.6435,-1.30753252245241
0.64575,-1.34581617391468
0.648,-1.38539440241932
0.65025,-1.42631624324689
0.6525,-1.46863270925144
0.65475,-1.51239687053459
0.657,-1.55766393706745
0.65925,-1.60449134435504
0.6615,-1.65293884224261
0.66375,-1.70306858696921
0.666,-1.75494523658097
0.66825,-1.80863604982498
0.6705,-1.86421098865452
0.67275,-1.92174282448835
0.675,-1.98130724838109
0.67725,-2.04298298527787
0.6795,-2.10685191254648
0.68175,-2.17299918300287
0.684,-2.24151335267286
0.68625,-2.31248651356356
0.6885,-2.38601443175475
0.69075,-2.46219669116091
0.693,-2.54113684336284
0.69525,-2.62294256396138
0.6975,-2.70772581596718
0.69975,-2.79560302080946
0.702,-2.886695237624
0.70425,-2.98112835156645
0.7065,-3.07903327199185
0.70875,-3.18054614144471
0.711,-3.28580855651622
0.71325,-3.39496780174416
0.7155,-3.50817709785754
0.71775,-3.62559586579631
0.72,-3.74739000806715
0.72225,-3.8737322091197
0.7245,-4.00480225654132
0.72675,-4.14078738495816
0.729,-4.28188264458619
0.73125,-4.42829129637675
0.7335,-4.580225235625
0.73575,-4.73790544572075
0.738,-4.90156248337746
0.74025,-5.0714369961161
0.7425,-5.24778027192644
0.74475,-5.43085481977441
0.747,-5.6209349778256
0.74925,-5.81830754372315
0.7515,-6.023272417733
0.75375,-6.23614324470761
0.756,-6.45724803414877
0.75825,-6.68692972854215
0.7605,-6.92554667772739
0.76275,-7.1734729601951
0.765,-7.43109846927379
0.76725,-7.69882865102498
0.7695,-7.97708373834871
0.77175,-8.26629726829609
0.774,-8.56691359141326
0.77625,-8.87938397568788
0.7785,-9.20416076333218
0.78075,-9.54168884289314
0.783,-9.89239343454159
0.78525,-10.2566628305342
0.7875,-10.6348242584768
0.78975,-11.0271104113745
0.792,-11.4336133862978
0.79425,-11.8542217776273
0.7965,-12.2885355069522
0.79875,-12.7357517598526
0.801,-13.1945144530294
0.80325,-13.6627196479443
0.8055,-14.137271551632
0.80775,-14.613790429828
0.81,-15.0862882723169
0.81225,-15.5468544900081
0.8145,-15.9854349809976
0.81675,-16.3898395099634
0.819,-16.7461546838446
0.82125,-17.0397298295344
0.8235,-17.2567842902083
0.82575,-17.3864338086001
0.828,-17.4226323822338
0.83025,-17.3653749213561
0.8325,-17.2206891839983
0.83475,-16.9994203680118
0.837,-16.7152844375852
0.83925,-16.38284480159
0.8415,-16.0159125831825
0.84375,-15.6265690008949
0.846,-15.22475898104
0.84825,-14.818288000461
0.8505,-14.4130451993877
0.85275,-14.0133184786118
0.855,-13.6221188488201
0.85725,-13.2414721757215
0.8595,-12.8726627296651
0.86175,-12.5164273389867
0.864,-12.1731055558678
0.86625,-11.8427534283118
0.8685,-11.5252284464116
0.87075,-11.2202522779464
0.873,-10.9274566959102
0.87525,-10.6464169385538
0.8775,-10.3766757492678
0.87975,-10.1177605440752
0.882,-9.86919553311977
0.88425,-9.63051015001918
0.8865,-9.4012447885549
0.88875,-9.18095458265786
0.891,-8.9692117707613
0.89325,-8.76560704189867
0.8955,-8.56975015514433
0.89775,-8.38127004616997
0.9,-8.19981457742667
0.90225,-8.025050046312
0.9045,-7.85666053463859
0.90675,-7.6943471598447
0.909,-7.53782727152811
0.91125,-7.38683362445687
0.9135,-7.24111355005887
0.91575,-7.10042814165878
0.918,-6.96455146378987
0.92025,-6.8332697922938
0.9225,-6.70638088929173
0.92475,-6.58369331520865
0.927,-6.46502577867349
0.92925,-6.35020652415765
0.9315,-6.23907275655139
0.93375,-6.13147010143142
0.936,-6.02725209948809
0.93825,-5.92627973341128
0.9405,-5.82842098544992
0.94275,-5.73355042383579
0.945,-5.64154881628065
0.94725,-5.55230276880302
0.9495,-5.46570438820825
0.95175,-5.38165096662395
0.954,-5.30004468657895
0.95625,-5.22079234520297
0.9585,-5.14380509621343
0.96075,-5.06899820844338
0.963,-4.99629083974998
0.96525,-4.92560582522365
0.9675,-4.85686947869566
0.96975,-4.79001140661418
0.972,-4.72496433342731
0.97425,-4.6616639376749
0.9765,-4.60004869805023
0.97875,-4.5400597487478
0.981,-4.48164074346403
0.98325,-4.42473772746505
0.9855,-4.369299017179
0.98775,-4.31527508681076
0.99,-4.26261846151361
0.99225,-4.2112836166871
0.9945,-4.16122688300111
0.99675,-4.11240635677599
0.999,-4.06478181537464
1.00125,-4.01831463728762
1.0035,-3.97296772661479
1.00575,-3.92870544166804
1.008,-3.88549352743921
1.01025,-3.8432990516948
1.0125,-3.80209034447583
1.01475,-3.76183694079637
1.017,-3.7225095263484
1.01925,-3.68407988603336
1.0215,-3.64652085515334
1.02375,-3.60980627310539
1.026,-3.57391093943331
1.02825,-3.53881057210036
1.0305,-3.50448176785565
1.03275,-3.47090196457469
1.035,-3.43804940546271
1.03725,-3.40590310501612
1.0395,-3.37444281664427
1.04175,-3.34364900185947
1.044,-3.31350280094953
1.04625,-3.28398600505162
1.0485,-3.25508102955196
1.05075,-3.22677088873973
1.053,-3.19903917164854
1.05525,-3.17187001902236
1.0575,-3.14524810134665
1.05975,-3.11915859788909
1.062,-3.09358717669733
1.06425,-3.06851997550451
1.0665,-3.04394358349577
1.06875,-3.01984502389205
1.071,-2.99621173730971
1.07325,-2.97303156585699
1.0755,-2.95029273793031
1.07775,-2.92798385367588
1.08,-2.90609387108342
1.08225,-2.88461209268131
1.0845,-2.86352815280348
1.08675,-2.84283200540057
1.089,-2.82251391236889
1.09125,-2.80256443237252
1.0935,-2.78297441013491
1.09575,-2.76373496617778
1.098,-2.74483748698622
1.10025,-2.72627361558006
1.1025,-2.70803524247245
1.10475,-2.69011449699782
1.107,-2.67250373899213
1.10925,-2.65519555080931
1.1115,-2.63818272965845
1.11375,-2.6214582802473
1.116,-2.60501540771823
1.11825,-2.58884751086349
1.1205,-2.57294817560729
1.12275,-2.55731116874294
1.125,-2.54193043191371
1.12725,-2.52680007582661
1.1295,-2.51191437468916
1.13175,-2.49726776085915
1.134,-2.48285481969834
1.13625,-2.46867028462132
1.1385,-2.45470903233107
1.14075,-2.4409660782333
1.143,-2.42743657202207
1.14525,-2.4141157934293
1.1475,-2.40099914813133
1.14975,-2.38808216380611
1.152,-2.3753604863345
1.15425,-2.36282987613993
1.1565,-2.35048620466052
1.15875,-2.33832545094847
1.161,-2.3263436983912
1.16325,-2.31453713154967
1.1655,-2.30290203310872
1.16775,-2.29143478093534
1.17,-2.28013184524017
1.17225,-2.26898978583841
1.1745,-2.25800524950599
1.17675,-2.24717496742727
1.179,-2.23649575273084
1.18125,-2.22596449810967
1.1835,-2.21557817352259
1.18575,-2.20533382397378
1.188,-2.19522856736732
1.19025,-2.18525959243393
1.1925,-2.17542415672706
1.19475,-2.16571958468573
1.197,-2.15614326576167
1.19925,-2.1466926526081
1.2015,-2.13736525932813
1.20375,-2.12815865978031
1.206,-2.11907048593925
1.20825,-2.11009842630943
1.2105,-2.10124022438996
1.21275,-2.09249367718866
1.215,-2.08385663378347
1.21725,-2.07532699392965
1.2195,-2.06690270671087
1.22175,-2.05858176923289
1.224,-2.05036222535801
1.22625,-2.04224216447904
1.2285,-2.03421972033129
1.23075,-2.02629306984125
1.233,-2.01846043201061
1.23525,-2.01072006683453
1.2375,-2.00307027425272
1.23975,-1.99550939313247
1.242,-1.98803580028221
1.24425,-1.98064790949488
1.2465,-1.97334417061977
1.24875,-1.96612306866206
1.251,-1.95898312290904
1.25325,-1.95192288608217
1.2555,-1.94494094351395
1.25775,-1.93803591234897
1.26,-1.93120644076818
1.26225,-1.92445120723565
1.2645,-1.91776891976717
1.26675,-1.91115831521975
1.269,-1.90461815860157
1.27125,-1.89814724240158
1.2735,-1.89174438593811
1.27575,-1.88540843472597
1.278,-1.8791382598613
1.28025,-1.87293275742372
1.2825,-1.86679084789522
1.28475,-1.86071147559514
1.287,-1.85469360813094
1.28925,-1.848736235864
1.2915,-1.84283837139024
1.29375,-1.83699904903494
1.296,-1.83121732436131
1.29825,-1.82549227369254
1.3005,-1.81982299364672
1.30275,-1.8142086006844
1.305,-1.80864823066829
1.30725,-1.80314103843481
1.3095,-1.79768619737707
1.31175,-1.79228289903905
1.314,-1.78693035272052
1.31625,-1.78162778509236
1.3185,-1.77637443982225
1.32075,-1.77116957721
1.323,-1.76601247383264
1.32525,-1.76090242219867
1.3275,-1.75583873041149
1.32975,-1.75082072184147
1.332,-1.74584773480669
1.33425,-1.74091912226179
1.3365,-1.73603425149508
1.33875,-1.73119250383327
1.341,-1.726393274354
1.34325,-1.72163597160558
1.3455,-1.71692001733411
1.34775,-1.71224484621746
1.35,-1.70760990560609
