"Freq [GHz]","dB(St11) []"
0.45,-0.0764391069456543
0.45225,-0.0779590039311729
0.4545,-0.0795100885254182
0.45675,-0.081093079874248
0.459,-0.0827087158932048
0.46125,-0.0843577538150632
0.4635,-0.0860409707550464
0.46575,-0.0877591642944209
0.468,-0.089513153083079
0.47025,-0.0913037774617752
0.4725,-0.0931319001047366
0.47475,-0.0949984066833869
0.477,-0.0969042065519102
0.47925,-0.0988502334554563
0.4815,-0.100837446261809
0.48375,-0.102866829717362
0.486,-0.104939395228278
0.48825,-0.107056181667742
0.4905,-0.109218256210285
0.49275,-0.111426715194137
0.495,-0.113682685012648
0.49725,-0.115987323035847
0.4995,-0.118341818563251
0.50175,-0.120747393809061
0.504,-0.123205304920961
0.50625,-0.125716843033761
0.5085,-0.128283335359173
0.51075,-0.130906146313069
0.513,-0.133586678681632
0.51525,-0.136326374827849
0.5175,-0.139126717939829
0.51975,-0.141989233322602
0.522,-0.144915489734933
0.52425,-0.147907100772943
0.5265,-0.150965726302257
0.52875,-0.154093073940529
0.531,-0.15729090059228
0.53325,-0.160561014038032
0.5355,-0.163905274579803
0.53775,-0.16732559674514
0.54,-0.170823951051913
0.54225,-0.174402365836232
0.5445,-0.178062929145903
0.54675,-0.181807790701946
0.549,-0.185639163930821
0.55125,-0.1895593280701
0.5535,-0.193570630350425
0.55575,-0.197675488256705
0.558,-0.201876391871708
0.56025,-0.20617590630514
0.5625,-0.210576674211671
0.56475,-0.215081418401315
0.567,-0.219692944545797
0.56925,-0.224414143984702
0.5715,-0.229247996635273
0.57375,-0.234197574009989
0.576,-0.239266042346126
0.57825,-0.244456665851751
0.5805,-0.24977281007271
0.58275,-0.255217945385402
0.585,-0.260795650620338
0.58725,-0.266509616821599
0.5895,-0.272363651147666
0.59175,-0.278361680919099
0.594,-0.284507757819008
0.59625,-0.290806062252307
0.5985,-0.297260907870034
0.60075,-0.303876746265341
0.603,-0.310658171847938
0.60525,-0.317609926904026
0.6075,-0.324736906849155
0.60975,-0.332044165681595
0.612,-0.339536921644175
0.61425,-0.347220563102875
0.6165,-0.355100654650695
0.61875,-0.36318294344576
0.621,-0.371473365792876
0.62325,-0.379978053978124
0.6255,-0.388703343366514
0.62775,-0.397655779772974
0.63,-0.406842127117426
0.63225,-0.416269375375094
0.6345,-0.425944748833526
0.63675,-0.435875714668341
0.639,-0.446069991850049
0.64125,-0.456535560394764
0.6435,-0.467280670972138
0.64575,-0.478313854884217
0.648,-0.489643934429461
0.65025,-0.501280033666629
0.6525,-0.513231589593746
0.65475,-0.525508363757824
0.657,-0.538120454311588
0.65925,-0.551078308533915
0.6615,-0.56439273583129
0.66375,-0.578074921238002
0.666,-0.592136439433497
0.66825,-0.606589269295721
0.6705,-0.621445809009833
0.67275,-0.636718891752347
0.675,-0.652421801971097
0.67725,-0.668568292282189
0.6795,-0.685172601005421
0.68175,-0.702249470360374
0.684,-0.719814165345797
0.68625,-0.737882493325425
0.6885,-0.756470824343935
0.69075,-0.7755961121972
0.693,-0.79527591628144
0.69525,-0.815528424246397
0.6975,-0.836372475478052
0.69975,-0.857827585436798
0.702,-0.879913970877437
0.70425,-0.902652575977626
0.7065,-0.926065099401859
0.70875,-0.950174022328209
0.711,-0.975002637465503
0.71325,-1.00057507908867
0.7155,-1.02691635412035
0.71775,-1.0540523742869
0.72,-1.08200998937718
0.72225,-1.11081702163256
0.7245,-1.14050230129673
0.72675,-1.17109570335394
0.729,-1.20262818548435
0.73125,-1.23513182726535
0.7335,-1.26863987064779
0.73575,-1.30318676173605
0.738,-1.33880819390116
0.74025,-1.37554115225664
0.7425,-1.41342395952668
0.74475,-1.45249632333716
0.747,-1.49279938496046
0.74925,-1.53437576954613
0.7515,-1.5772696378703
0.75375,-1.62152673963877
0.756,-1.66719446837995
0.75825,-1.7143219179669
0.7605,-1.76295994080996
0.76275,-1.81316120776577
0.765,-1.86498026981214
0.76725,-1.91847362154402
0.7695,-1.97369976655174
0.77175,-2.03071928475015
0.774,-2.08959490173602
0.77625,-2.15039156026129
0.7785,-2.21317649392114
0.78075,-2.27801930317013
0.783,-2.34499203379437
0.78525,-2.41416925798641
0.7875,-2.4856281581888
0.78975,-2.55944861389565
0.792,-2.63571329162658
0.79425,-2.71450773831574
0.7965,-2.79592047839023
0.79875,-2.88004311484599
0.801,-2.96697043466698
0.80325,-3.05680051897351
0.8055,-3.1496348583284
0.80775,-3.24557847367513
0.81,-3.34474004342836
0.81225,-3.44723203728539
0.8145,-3.55317085737372
0.81675,-3.66267698739498
0.819,-3.77587515046562
0.82125,-3.89289447638782
0.8235,-4.01386867910509
0.82575,-4.13893624510178
0.828,-4.26824063348684
0.83025,-4.40193048845071
0.8325,-4.54015986469037
0.83475,-4.6830884662443
0.837,-4.83088189895045
0.83925,-4.98371193641001
0.8415,-5.14175679887824
0.84375,-5.30520144386936
0.846,-5.47423786640531
0.84825,-5.64906540568924
0.8505,-5.82989105345852
0.85275,-6.01692975725466
0.855,-6.21040470919312
0.85725,-6.41054760733215
0.8595,-6.61759887217794
0.86175,-6.83180779489607
0.864,-7.05343258600074
0.86625,-7.28274028310253
0.8685,-7.52000646298098
0.87075,-7.76551468584829
0.873,-8.01955557692752
0.87525,-8.28242542074
0.8775,-8.55442410464213
0.87975,-8.83585219740377
0.882,-9.12700688242243
0.88425,-9.42817637902078
0.8865,-9.73963237358316
0.88875,-10.0616198383142
0.891,-10.3943434314237
0.89325,-10.737949440461
0.8955,-11.0925019433974
0.89775,-11.4579515172304
0.9,-11.8340944291307
0.90225,-12.2205198295958
0.9045,-12.6165421001648
0.90675,-13.0211153302656
0.909,-13.4327271657189
0.91125,-13.8492704203037
0.9135,-14.2678935487878
0.91575,-14.6848362900088
0.918,-15.0952656015359
0.92025,-15.4931402382532
0.9225,-15.871149484153
0.92475,-16.2207890787703
0.927,-16.5326466606237
0.92925,-16.7969559699171
0.9315,-17.0044287085396
0.93375,-17.1472821101295
0.936,-17.2202731363851
0.93825,-17.2214813641884
0.9405,-17.1526097056923
0.94275,-17.018707175685
0.945,-16.8274022063929
0.94725,-16.5878737430995
0.9495,-16.3098191430345
0.95175,-16.0026120239615
0.954,-15.6747364140981
0.95625,-15.3334913207853
0.9585,-14.9849077371393
0.96075,-14.633805749671
0.963,-14.283928075378
0.96525,-13.9381037590625
0.9675,-13.5984130333562
0.96975,-13.2663377615302
0.972,-12.942890867709
0.97425,-12.6287234967211
0.9765,-12.3242114361491
0.97875,-12.0295235313722
0.981,-11.7446751188466
0.98325,-11.4695693373462
0.9855,-11.2040288144777
0.98775,-10.9478198105945
0.99,-10.7006705059162
0.99225,-10.462284769602
0.9945,-10.2323524600973
0.99675,-10.0105570719118
0.999,-9.79658135825018
1.00125,-9.5901114135131
1.0035,-9.39083958686469
1.00575,-9.1984665110303
1.008,-9.01270246361274
1.01025,-8.83326822694395
1.0125,-8.6598955732369
1.01475,-8.49232747176676
1.017,-8.33031809183234
1.01925,-8.17363265766309
1.0215,-8.02204719797597
1.02375,-7.87534822257553
1.026,-7.73333235049148
1.02825,-7.59580590809392
1.0305,-7.46258451098595
1.03275,-7.33349263991974
1.035,-7.20836321825899
1.03725,-7.08703719643064
1.0395,-6.96936314721978
1.04175,-6.85519687455284
1.044,-6.74440103749776
1.04625,-6.63684479051809
1.0485,-6.53240344050022
1.05075,-6.43095812068852
1.053,-6.33239548138137
1.05525,-6.2366073970384
1.0575,-6.14349068930627
1.05975,-6.05294686537474
1.062,-5.96488187101215
1.06425,-5.87920585759577
1.0665,-5.7958329624359
1.06875,-5.71468110169285
1.071,-5.63567177519577
1.07325,-5.55872988248987
1.0755,-5.48378354946174
1.07775,-5.4107639649189
1.08,-5.33960522652859
1.08225,-5.27024419555036
1.0845,-5.20262035982729
1.08675,-5.13667570453082
1.089,-5.07235459018335
1.09125,-5.00960363751112
1.0935,-4.94837161870775
1.09575,-4.88860935471434
1.098,-4.83026961814741
1.10025,-4.77330704152913
1.1025,-4.71767803049682
1.10475,-4.66334068168921
1.107,-4.6102547050269
1.10925,-4.55838135012265
1.1115,-4.5076833365743
1.11375,-4.45812478790939
1.116,-4.40967116896529
1.11825,-4.36228922650288
1.1205,-4.31594693286473
1.12275,-4.27061343250098
1.125,-4.22625899119752
1.12725,-4.18285494785144
1.1295,-4.14037366864881
1.13175,-4.09878850350891
1.134,-4.05807374466759
1.13625,-4.01820458728035
1.1385,-3.97915709193338
1.14075,-3.94090814895739
1.143,-3.90343544444589
1.14525,-3.86671742788517
1.1475,-3.83073328130936
1.14975,-3.79546288989875
1.152,-3.76088681394455
1.15425,-3.72698626210821
1.1565,-3.69374306590701
1.15875,-3.66113965536232
1.161,-3.62915903575018
1.16325,-3.59778476539751
1.1655,-3.56700093447067
1.16775,-3.53679214470577
1.17,-3.50714349003349
1.17225,-3.47804053805341
1.1745,-3.44946931231559
1.17675,-3.42141627536955
1.179,-3.39386831254282
1.18125,-3.36681271641345
1.1835,-3.34023717194279
1.18575,-3.31412974223665
1.188,-3.28847885490477
1.19025,-3.26327328898992
1.1925,-3.23850216243983
1.19475,-3.21415492009615
1.197,-3.19022132217645
1.19925,-3.16669143322612
1.2015,-3.14355561151846
1.20375,-3.1208044988824
1.206,-3.09842901093813
1.20825,-3.07642032772229
1.2105,-3.05476988468479
1.21275,-3.03346936404078
1.215,-3.0125106864618
1.21725,-2.99188600309089
1.2195,-2.97158768786751
1.22175,-2.95160833014846
1.224,-2.93194072761191
1.22625,-2.91257787943216
1.2285,-2.89351297971346
1.23075,-2.87473941117163
1.233,-2.85625073905288
1.23525,-2.83804070527979
1.2375,-2.82010322281462
1.23975,-2.80243237023093
1.242,-2.78502238648473
1.24425,-2.76786766587667
1.2465,-2.75096275319762
1.24875,-2.73430233904961
1.251,-2.71788125533538
1.25325,-2.70169447090923
1.2555,-2.68573708738286
1.25775,-2.67000433507975
1.26,-2.65449156913212
1.26225,-2.63919426571479
1.2645,-2.62410801841038
1.26675,-2.60922853470066
1.269,-2.59455163257905
1.27125,-2.5800732372795
1.2735,-2.56578937811711
1.27575,-2.55169618543626
1.278,-2.53778988766191
1.28025,-2.52406680845021
1.2825,-2.5105233639345
1.28475,-2.4971560600631
1.287,-2.48396149002534
1.28925,-2.47093633176252
1.2915,-2.4580773455606
1.29375,-2.4453813717214
1.296,-2.43284532830966
1.29825,-2.42046620897277
1.3005,-2.40824108083079
1.30275,-2.39616708243392
1.305,-2.38424142178517
1.30725,-2.3724613744256
1.3095,-2.36082428158003
1.31175,-2.34932754836094
1.314,-2.33796864202856
1.31625,-2.3267450903049
1.3185,-2.31565447974011
1.32075,-2.30469445412909
1.323,-2.29386271297653
1.32525,-2.28315701000888
1.3275,-2.27257515173148
1.32975,-2.26211499602919
1.332,-2.25177445080915
1.33425,-2.24155147268417
1.3365,-2.23144406569532
1.33875,-2.22145028007237
1.341,-2.21156821103082
1.34325,-2.20179599760429
1.3455,-2.19213182151102
1.34775,-2.18257390605336
1.35,-2.17312051504919
