"Freq [GHz]","dB(St11) []"
0.45,-0.172625950028606
0.45225,-0.176463313018861
0.4545,-0.180392425038895
0.45675,-0.184415803061734
0.459,-0.188536042827904
0.46125,-0.192755821607471
0.4635,-0.197077901068834
0.46575,-0.201505130258645
0.468,-0.206040448697522
0.47025,-0.21068688959641
0.4725,-0.215447583198623
0.47475,-0.220325760252855
0.477,-0.225324755622685
0.47925,-0.230448012038285
0.4815,-0.235699083996393
0.48375,-0.241081641814773
0.486,-0.246599475847725
0.48825,-0.252256500869476
0.4905,-0.258056760632581
0.49275,-0.264004432608778
0.495,-0.270103832920068
0.49725,-0.276359421468124
0.4995,-0.282775807270522
0.50175,-0.289357754012588
0.504,-0.296110185824125
0.50625,-0.303038193290597
0.5085,-0.310147039708887
0.51075,-0.317442167598019
0.513,-0.324929205475833
0.51525,-0.332613974913019
0.5175,-0.340502497876368
0.51975,-0.348601004373689
0.522,-0.356915940413301
0.52425,-0.365453976291624
0.5265,-0.374222015222868
0.52875,-0.383227202325568
0.531,-0.392476933981159
0.53325,-0.401978867580543
0.5355,-0.411740931675249
0.53775,-0.421771336550368
0.54,-0.432078585237338
0.54225,-0.442671484985235
0.5445,-0.453559159209996
0.54675,-0.464751059941922
0.549,-0.476256980792448
0.55125,-0.488087070462068
0.5535,-0.50025184681223
0.55575,-0.512762211524727
0.558,-0.525629465373225
0.56025,-0.538865324132328
0.5625,-0.552481935150601
0.56475,-0.566491894614974
0.567,-0.580908265534879
0.56925,-0.595744596475548
0.5715,-0.611014941070914
0.57375,-0.626733878347571
0.576,-0.642916533892412
0.57825,-0.659578601897543
0.5805,-0.676736368117248
0.58275,-0.694406733772824
0.585,-0.712607240442304
0.58725,-0.731356095973056
0.5895,-0.750672201456585
0.59175,-0.770575179305741
0.594,-0.791085402475886
0.59625,-0.812224024872457
0.5985,-0.834013012988718
0.60075,-0.856475178818297
0.603,-0.879634214088448
0.60525,-0.903514725860818
0.6075,-0.928142273547668
0.60975,-0.953543407392471
0.612,-0.979745708464713
0.61425,-1.00677783021985
0.6165,-1.03466954167619
0.61875,-1.06345177226136
0.621,-1.0931566583821
0.62325,-1.12381759177184
0.6255,-1.15546926967144
0.62775,-1.18814774689951
0.63,-1.2218904898695
0.63225,-1.25673643261188
0.6345,-1.2927260348606
0.63675,-1.32990134226455
0.639,-1.36830604878553
0.64125,-1.40798556134638
0.6435,-1.44898706679418
0.64575,-1.49135960124582
0.648,-1.53515412188567
0.65025,-1.58042358128806
0.6525,-1.62722300434103
0.65475,-1.67560956785191
0.657,-1.72564268292081
0.65925,-1.77738408017432
0.6615,-1.83089789795904
0.66375,-1.88625077360394
0.666,-1.94351193787089
0.66825,-2.00275331272569
0.6705,-2.06404961257647
0.67275,-2.12747844914431
0.675,-2.19312044015118
0.67725,-2.26105932203402
0.6795,-2.33138206692176
0.68175,-2.40417900414353
0.684,-2.47954394657312
0.68625,-2.55757432215614
0.6885,-2.63837131101378
0.69075,-2.72203998857048
0.693,-2.80868947521256
0.69525,-2.89843309305202
0.6975,-2.99138853044334
0.69975,-3.08767801498314
0.702,-3.18742849581058
0.70425,-3.29077183612271
0.7065,-3.39784501692072
0.70875,-3.50879035311027
0.711,-3.62375572318961
0.71325,-3.74289481386993
0.7155,-3.86636738108036
0.71775,-3.9943395289084
0.72,-4.12698400810912
0.72225,-4.26448053587251
0.7245,-4.40701613855398
0.72675,-4.55478551903036
0.729,-4.70799145021855
0.73125,-4.86684519605276
0.7335,-5.03156696081756
0.73575,-5.2023863671189
0.738,-5.37954296186847
0.74025,-5.56328674835734
0.7425,-5.75387874066616
0.74475,-5.95159153412363
0.747,-6.156709882039
0.74925,-6.36953126417772
0.7515,-6.59036642598695
0.75375,-6.8195398588285
0.756,-7.05739017965323
0.75825,-7.30427035259434
0.7605,-7.56054767343108
0.76275,-7.82660340883768
0.765,-8.10283194315559
0.76725,-8.3896392325531
0.7695,-8.6874402950619
0.77175,-8.99665536865021
0.774,-9.31770423958269
0.77625,-9.65099806845278
0.7785,-9.99692780668138
0.78075,-10.3558479833469
0.783,-10.7280542285368
0.78525,-11.1137523602597
0.7875,-11.5130161747097
0.78975,-11.9257302343753
0.792,-12.3515129699684
0.79425,-12.7896144030103
0.7965,-13.2387820144637
0.79875,-13.6970882760692
0.801,-14.1617151541713
0.80325,-14.6286962482136
0.8055,-15.0926287907737
0.80775,-15.5463887895601
0.81,-15.9809155530966
0.81225,-16.3851744524875
0.8145,-16.7464454225607
0.81675,-17.0510878952722
0.819,-17.2858552225307
0.82125,-17.4396440538083
0.8235,-17.5053087439397
0.82575,-17.4809909162422
0.828,-17.3704799032579
0.83025,-17.1824625984376
0.8325,-16.9289525701744
0.83475,-16.6234416377737
0.837,-16.2792792164324
0.83925,-15.90855612664
0.8415,-15.5215272403764
0.84375,-15.1264596975309
0.846,-14.7297503015367
0.84825,-14.3361765662546
0.8505,-13.9491885831526
0.85275,-13.5711888013902
0.855,-13.2037753615103
0.85725,-12.847941863148
0.8595,-12.504235401324
0.86175,-12.1728785109183
0.864,-11.8538616401453
0.86625,-11.5470123969379
0.8685,-11.2520469040349
0.87075,-10.9686075811991
0.873,-10.6962907363672
0.87525,-10.4346665592437
0.8775,-10.1832934795388
0.87975,-9.94172836135122
0.882,-9.70953363093505
0.88425,-9.48628215305198
0.8865,-9.27156046019882
0.88875,-9.06497078202289
0.891,-8.86613220572233
0.89325,-8.67468121186501
0.8955,-8.49027176607753
0.89775,-8.31257509964997
0.9,-8.14127927696344
0.90225,-7.97608862158864
0.9045,-7.81672305356844
0.90675,-7.6629173760474
0.909,-7.51442053876095
0.91125,-7.37099489799781
0.9135,-7.23241548679643
0.91575,-7.09846930480873
0.918,-6.96895463407553
0.92025,-6.84368038461639
0.9225,-6.72246547203091
0.92475,-6.60513822807443
0.927,-6.49153584429038
0.92925,-6.38150384816344
0.9315,-6.27489561083508
0.93375,-6.17157188514394
0.936,-6.07140037258185
0.93825,-5.97425531766127
0.9405,-5.88001712815187
0.94275,-5.78857201964575
0.945,-5.69981168294072
0.94725,-5.61363297278014
0.9495,-5.52993761654961
0.95175,-5.4486319416
0.954,-5.36962661993948
0.95625,-5.29283642911187
0.9585,-5.21818002815329
0.96075,-5.14557974759096
0.963,-5.07496139251842
0.96525,-5.00625405784803
0.9675,-4.93938995490473
0.96975,-4.87430424858481
0.972,-4.81093490435906
0.97425,-4.74922254445219
0.9765,-4.68911031257843
0.97875,-4.6305437466592
0.981,-4.57347065898966
0.98325,-4.51784102336082
0.9855,-4.46360686867873
0.98775,-4.41072217865646
0.99,-4.35914279718457
0.99225,-4.30882633901445
0.9945,-4.25973210541492
0.99675,-4.21182100448693
0.999,-4.16505547584304
1.00125,-4.11939941937954
1.0035,-4.07481812788754
1.00575,-4.03127822326739
1.008,-3.98874759612686
1.01025,-3.94719534855843
1.0125,-3.90659173990512
1.01475,-3.86690813533708
1.017,-3.82811695707291
1.01925,-3.79019163809099
1.0215,-3.75310657818601
1.02375,-3.71683710223549
1.026,-3.68135942054995
1.02825,-3.6466505911882
1.0305,-3.61268848412731
1.03275,-3.5794517471832
1.035,-3.54691977358492
1.03725,-3.51507267111128
1.0395,-3.48389123270459
1.04175,-3.45335690848089
1.044,-3.4234517790619
1.04625,-3.39415853015729
1.0485,-3.36546042833134
1.05075,-3.33734129789103
1.053,-3.30978549883696
1.05525,-3.28277790582165
1.0575,-3.25630388806312
1.05975,-3.23034929016456
1.062,-3.20490041379394
1.06425,-3.17994400017987
1.0665,-3.15546721338247
1.06875,-3.13145762430058
1.071,-3.10790319537854
1.07325,-3.08479226597803
1.0755,-3.06211353838211
1.07775,-3.03985606440077
1.08,-3.01800923254864
1.08225,-2.99656275576724
1.0845,-2.9755066596657
1.08675,-2.95483127125523
1.089,-2.9345272081537
1.09125,-2.91458536823854
1.0935,-2.89499691972658
1.09575,-2.87575329166114
1.098,-2.85684616478734
1.10025,-2.83826746279794
1.1025,-2.82000934393244
1.10475,-2.80206419291361
1.107,-2.78442461320593
1.10925,-2.76708341958157
1.1115,-2.75003363097997
1.11375,-2.73326846364812
1.116,-2.71678132454882
1.11825,-2.70056580502534
1.1205,-2.68461567471097
1.12275,-2.66892487567303
1.125,-2.65348751678088
1.12725,-2.6382978682884
1.1295,-2.62335035662169
1.13175,-2.60863955936309
1.134,-2.59416020042337
1.13625,-2.57990714539384
1.1385,-2.56587539707103
1.14075,-2.55206009114652
1.143,-2.53845649205515
1.14525,-2.52505998897488
1.1475,-2.51186609197215
1.14975,-2.49887042828673
1.152,-2.48606873875026
1.15425,-2.47345687433304
1.1565,-2.46103079281399
1.15875,-2.44878655556866
1.161,-2.43672032447051
1.16325,-2.42482835890115
1.1655,-2.4131070128649
1.16775,-2.40155273220372
1.17,-2.39016205190854
1.17225,-2.37893159352311
1.1745,-2.36785806263673
1.17675,-2.35693824646261
1.179,-2.34616901149824
1.18125,-2.33554730126477
1.1835,-2.32507013412244
1.18575,-2.31473460115888
1.188,-2.30453786414777
1.19025,-2.29447715357507
1.1925,-2.28454976673026
1.19475,-2.27475306586015
1.197,-2.26508447638296
1.19925,-2.25554148516036
1.2015,-2.24612163882539
1.20375,-2.23682254216408
1.206,-2.22764185654893
1.20825,-2.21857729842225
1.2105,-2.20962663782759
1.21275,-2.20078769698746
1.215,-2.19205834892574
1.21725,-2.18343651613307
1.2195,-2.17492016927385
1.22175,-2.16650732593308
1.224,-2.15819604940196
1.22625,-2.14998444750062
1.2285,-2.14187067143676
1.23075,-2.13385291469895
1.233,-2.12592941198343
1.23525,-2.11809843815308
1.2375,-2.11035830722762
1.23975,-2.10270737140387
1.242,-2.09514402010504
1.24425,-2.08766667905813
1.2465,-2.08027380939836
1.24875,-2.07296390679984
1.251,-2.06573550063148
1.25325,-2.05858715313743
1.2555,-2.05151745864108
1.25775,-2.04452504277194
1.26,-2.03760856171457
1.26225,-2.03076670147894
1.2645,-2.02399817719138
1.26675,-2.01730173240556
1.269,-2.01067613843276
1.27125,-2.0041201936909
1.2735,-1.99763272307163
1.27575,-1.99121257732496
1.278,-1.98485863246089
1.28025,-1.97856978916738
1.2825,-1.97234497224436
1.28475,-1.96618313005301
1.287,-1.96008323398005
1.28925,-1.95404427791649
1.2915,-1.94806527775033
1.29375,-1.94214527087293
1.296,-1.93628331569849
1.29825,-1.93047849119627
1.3005,-1.92472989643528
1.30275,-1.91903665014086
1.305,-1.91339789026298
1.30725,-1.90781277355582
1.3095,-1.9022804751683
1.31175,-1.89680018824521
1.314,-1.89137112353874
1.31625,-1.88599250902998
1.3185,-1.88066358956016
1.32075,-1.87538362647132
1.323,-1.8701518972562
1.32525,-1.86496769521701
1.3275,-1.85983032913288
1.32975,-1.85473912293572
1.332,-1.84969341539425
1.33425,-1.84469255980599
1.3365,-1.83973592369699
1.33875,-1.83482288852909
1.341,-1.82995284941443
1.34325,-1.82512521483715
1.3455,-1.82033940638197
1.34775,-1.81559485846946
1.35,-1.81089101809797
