"Freq [GHz]","dB(St11) []"
0.45,-0.114873884458773
0.45225,-0.117238411519145
0.4545,-0.119653817294051
0.45675,-0.122121343021055
0.459,-0.12464226419501
0.46125,-0.127217891623041
0.4635,-0.129849572515461
0.46575,-0.132538691613903
0.468,-0.135286672358067
0.47025,-0.138094978092519
0.4725,-0.140965113315026
0.47475,-0.143898624967957
0.477,-0.146897103774383
0.47925,-0.149962185620558
0.4815,-0.153095552986468
0.48375,-0.156298936426302
0.486,-0.159574116100726
0.48825,-0.162922923362871
0.4905,-0.166347242400116
0.49275,-0.169849011933743
0.495,-0.173430226978673
0.49725,-0.177092940665569
0.4995,-0.180839266127691
0.50175,-0.184671378454932
0.504,-0.188591516717652
0.50625,-0.192601986062958
0.5085,-0.196705159886191
0.51075,-0.200903482080551
0.513,-0.205199469367806
0.51525,-0.209595713713274
0.5175,-0.214094884828251
0.51975,-0.218699732763337
0.522,-0.223413090596108
0.52425,-0.228237877216839
0.5265,-0.23317710021602
0.52875,-0.238233858877667
0.531,-0.243411347282495
0.53325,-0.248712857525234
0.5355,-0.254141783050532
0.53775,-0.259701622112028
0.54,-0.265395981359433
0.54225,-0.271228579558574
0.5445,-0.277203251449558
0.54675,-0.283323951748503
0.549,-0.289594759298367
0.55125,-0.296019881374701
0.5535,-0.302603658152398
0.55575,-0.309350567339648
0.558,-0.31626522898566
0.56025,-0.323352410468896
0.5625,-0.330617031672834
0.56475,-0.338064170356559
0.567,-0.345699067727737
0.56925,-0.353527134225827
0.5715,-0.361553955523694
0.57375,-0.369785298756029
0.576,-0.378227118983386
0.57825,-0.386885565900872
0.5805,-0.395766990800954
0.58275,-0.404877953800103
0.585,-0.41422523133937
0.58725,-0.423815823969416
0.5895,-0.433656964430752
0.59175,-0.443756126040453
0.594,-0.454121031396938
0.59625,-0.464759661414768
0.5985,-0.475680264701872
0.60075,-0.486891367292042
0.603,-0.498401782745842
0.60525,-0.510220622633653
0.6075,-0.522357307414853
0.60975,-0.534821577727696
0.612,-0.547623506104828
0.61425,-0.560773509129804
0.6165,-0.574282360050509
0.61875,-0.588161201865699
0.621,-0.602421560901459
0.62325,-0.617075360894757
0.6255,-0.632134937601693
0.62775,-0.647613053948578
0.63,-0.663522915744315
0.63225,-0.679878187973042
0.6345,-0.69669301168643
0.63675,-0.713982021515344
0.639,-0.731760363821144
0.64125,-0.750043715507079
0.6435,-0.768848303510775
0.64575,-0.78819092499902
0.648,-0.808088968286477
0.65025,-0.828560434500167
0.6525,-0.849623960011887
0.65475,-0.871298839660962
0.657,-0.893605050789868
0.65925,-0.916563278115572
0.6615,-0.940194939459391
0.66375,-0.964522212358433
0.666,-0.989568061581645
0.66825,-1.01535626757351
0.6705,-1.04191145584849
0.67275,-1.06925912735912
0.675,-1.09742568986073
0.67725,-1.1264384902954
0.6795,-1.15632584821791
0.68175,-1.18711709028579
0.684,-1.21884258583601
0.68625,-1.25153378356982
0.6885,-1.28522324936782
0.69075,-1.31994470525655
0.693,-1.35573306954806
0.69525,-1.39262449817358
0.6975,-1.43065642723255
0.69975,-1.46986761677817
0.702,-1.51029819586103
0.70425,-1.55198970885245
0.7065,-1.59498516307016
0.70875,-1.63932907772955
0.711,-1.6850675342449
0.71325,-1.73224822790686
0.7155,-1.78092052096423
0.71775,-1.83113549714087
0.72,-1.88294601762172
0.72225,-1.93640677854587
0.7245,-1.99157437004952
0.72675,-2.04850733690709
0.729,-2.10726624082597
0.73125,-2.16791372445787
0.7335,-2.23051457719929
0.73575,-2.29513580286423
0.738,-2.36184668932438
0.74025,-2.43071888022618
0.7425,-2.50182644890964
0.74475,-2.57524597467152
0.747,-2.65105662153507
0.74925,-2.72934021971012
0.7515,-2.81018134995082
0.75375,-2.89366743104405
0.756,-2.97988881068867
0.75825,-3.06893886005471
0.7605,-3.16091407234165
0.76275,-3.25591416568537
0.765,-3.35404219079373
0.76725,-3.45540464371979
0.7695,-3.56011158420764
0.77175,-3.66827676006791
0.774,-3.78001773805375
0.77625,-3.89545604171297
0.7785,-4.01471729668102
0.78075,-4.13793138385031
0.783,-4.26523260079441
0.78525,-4.39675983173515
0.7875,-4.53265672620357
0.78975,-4.67307188634944
0.792,-4.81815906258123
0.79425,-4.96807735684542
0.7965,-5.12299143235457
0.79875,-5.28307172790917
0.801,-5.4484946740847
0.80325,-5.61944290741178
0.8055,-5.79610547718989
0.80775,-5.97867803764479
0.81,-6.16736301564377
0.81225,-6.36236974095915
0.8145,-6.56391452191352
0.81675,-6.77222064388292
0.819,-6.98751826123264
0.82125,-7.21004414437051
0.8235,-7.44004123215156
0.82575,-7.67775792511543
0.828,-7.9234470360334
0.83025,-8.17736428976393
0.8325,-8.43976623290518
0.83475,-8.71090737321538
0.837,-8.9910363167721
0.83925,-9.28039060430563
0.8415,-9.5791898634001
0.84375,-9.88762678605134
0.846,-10.2058553067877
0.84825,-10.5339751907662
0.8505,-10.8720120408832
0.85275,-11.2198914985276
0.855,-11.5774061523607
0.85725,-11.9441734062907
0.8595,-12.319582340518
0.86175,-12.7027275208161
0.864,-13.0923279329401
0.86625,-13.4866300049005
0.8685,-13.8832954281426
0.87075,-14.2792777444369
0.873,-14.6706970637488
0.87525,-15.0527303335207
0.8775,-15.4195451971578
0.87975,-15.7643171038643
0.882,-16.0793778633529
0.88425,-16.3565420049369
0.8865,-16.58763596507
0.88875,-16.7652082394778
0.891,-16.8833315361268
0.89325,-16.9383437867649
0.8955,-16.9293495054662
0.89775,-16.8583439829621
0.9,-16.729924385409
0.90225,-16.5506702964837
0.9045,-16.3283565330615
0.90675,-16.0711733709254
0.909,-15.787083695542
0.91125,-15.4833773011593
0.9135,-15.1664219762242
0.91575,-14.841574750316
0.918,-14.5132043616891
0.92025,-14.1847794605231
0.9225,-13.8589875537232
0.92475,-13.5378612375508
0.927,-13.2228979184805
0.92925,-12.9151661563963
0.9315,-12.6153962126836
0.93375,-12.3240549527332
0.936,-12.0414065505473
0.93825,-11.7675609591968
0.9405,-11.5025121848916
0.94275,-11.2461682523232
0.945,-10.9983745047754
0.94725,-10.7589316164614
0.9495,-10.5276094431815
0.95175,-10.3041576165021
0.954,-10.0883136006619
0.95625,-9.87980877901638
0.9585,-9.67837301422209
0.96075,-9.48373802891888
0.963,-9.29563987688808
0.96525,-9.1138207145126
0.9675,-8.9380300354227
0.96975,-8.76802549466998
0.972,-8.60357342037053
0.97425,-8.44444908869928
0.9765,-8.2904368209921
0.97875,-8.14132994841337
0.981,-7.99693067931854
0.98325,-7.85704989641672
0.9855,-7.72150690459957
0.98775,-7.59012914545359
0.99,-7.46275189069995
0.99225,-7.33921792387236
0.9945,-7.21937721726225
0.99675,-7.10308660938811
0.999,-6.99020948686915
1.00125,-6.88061547351791
1.0035,-6.77418012864061
1.00575,-6.67078465589959
1.008,-6.57031562360297
1.01025,-6.47266469691499
1.0125,-6.3777283821975
1.01475,-6.28540778348141
1.017,-6.19560837090994
1.01925,-6.10823976088083
1.0215,-6.023215507534
1.02375,-5.94045290517534
1.026,-5.85987280119203
1.02825,-5.78139941899396
1.0305,-5.70496019050711
1.03275,-5.63048559774435
1.035,-5.55790902298512
1.03725,-5.48716660710676
1.0395,-5.41819711562391
1.04175,-5.35094181200902
1.044,-5.28534433788543
1.04625,-5.22135059970245
1.0485,-5.15890866152168
1.05075,-5.09796864356284
1.053,-5.03848262617597
1.05525,-4.98040455892591
1.0575,-4.92369017449213
1.05975,-4.86829690710498
1.062,-4.81418381525507
1.06425,-4.76131150842872
1.0665,-4.70964207763718
1.06875,-4.65913902952095
1.071,-4.60976722382469
1.07325,-4.56149281404967
1.0755,-4.51428319110348
1.07775,-4.46810692977712
1.08,-4.42293373789015
1.08225,-4.37873440795463
1.0845,-4.3354807712172
1.08675,-4.2931456539478
1.089,-4.25170283585082
1.09125,-4.21112701048274
1.0935,-4.17139374756687
1.09575,-4.13247945710244
1.098,-4.09436135517144
1.10025,-4.05701743135263
1.1025,-4.02042641765707
1.10475,-3.98456775890494
1.107,-3.94942158446792
1.10925,-3.91496868130597
1.1115,-3.88119046823132
1.11375,-3.84806897133658
1.116,-3.81558680052718
1.11825,-3.7837271271022
1.1205,-3.75247366233026
1.12275,-3.72181063697092
1.125,-3.69172278169383
1.12725,-3.66219530835154
1.1295,-3.6332138920636
1.13175,-3.60476465407216
1.134,-3.57683414533171
1.13625,-3.54940933079703
1.1385,-3.52247757437608
1.14075,-3.49602662451569
1.143,-3.47004460039023
1.14525,-3.44451997866444
1.1475,-3.41944158080368
1.14975,-3.39479856090571
1.152,-3.37058039403008
1.15425,-3.34677686500182
1.1565,-3.3233780576678
1.15875,-3.300374344585
1.161,-3.27775637712113
1.16325,-3.25551507594874
1.1655,-3.23364162191546
1.16775,-3.21212744727321
1.17,-3.19096422725071
1.17225,-3.17014387195383
1.1745,-3.14965851857954
1.17675,-3.12950052392972
1.179,-3.1096624572116
1.18125,-3.0901370931127
1.1835,-3.07091740513811
1.18575,-3.05199655919917
1.188,-3.0333679074426
1.19025,-3.01502498231004
1.1925,-2.99696149081806
1.19475,-2.9791713090497
1.197,-2.96164847684831
1.19925,-2.94438719270564
1.2015,-2.92738180883585
1.20375,-2.91062682642793
1.206,-2.89411689106922
1.20825,-2.877846788333
1.2105,-2.86181143952349
1.21275,-2.84600589757187
1.215,-2.83042534307741
1.21725,-2.81506508048762
1.2195,-2.79992053441216
1.22175,-2.78498724606502
1.224,-2.77026086983
1.22625,-2.75573716994456
1.2285,-2.74141201729752
1.23075,-2.72728138633609
1.233,-2.713341352078
1.23525,-2.69958808722473
1.2375,-2.68601785937186
1.23975,-2.67262702831296
1.242,-2.65941204343327
1.24425,-2.64636944118997
1.2465,-2.63349584267564
1.24875,-2.62078795126176
1.251,-2.6082425503194
1.25325,-2.59585650101406
1.2555,-2.583626740172
1.25775,-2.57155027821541
1.26,-2.55962419716386
1.26225,-2.54784564869961
1.2645,-2.53621185229446
1.26675,-2.52472009339589
1.269,-2.51336772167032
1.27125,-2.50215214930156
1.2735,-2.49107084934224
1.27575,-2.48012135411654
1.278,-2.46930125367226
1.28025,-2.4586081942806
1.2825,-2.44803987698178
1.28475,-2.4375940561751
1.287,-2.42726853825174
1.28925,-2.41706118026884
1.2915,-2.40696988866346
1.29375,-2.396992618005
1.296,-2.38712736978477
1.29825,-2.37737219124141
1.3005,-2.36772517422102
1.30275,-2.35818445407068
1.305,-2.34874820856428
1.30725,-2.3394146568597
1.3095,-2.33018205848602
1.31175,-2.32104871236001
1.314,-2.31201295583074
1.31625,-2.30307316375148
1.3185,-2.29422774757793
1.32075,-2.28547515449193
1.323,-2.27681386654979
1.32525,-2.26824239985448
1.3275,-2.25975930375082
1.32975,-2.25136316004305
1.332,-2.24305258223384
1.33425,-2.23482621478431
1.3365,-2.22668273239419
1.33875,-2.21862083930155
1.341,-2.21063926860142
1.34325,-2.20273678158281
1.3455,-2.19491216708338
1.34775,-2.18716424086145
1.35,-2.17949184498445
