"Freq [GHz]","dB(St11) []"
0.45,-0.121335004756847
0.45225,-0.123855168674535
0.4545,-0.126430256021473
0.45675,-0.129061623744309
0.459,-0.131750666810419
0.46125,-0.134498819397866
0.4635,-0.137307556126438
0.46575,-0.140178393331335
0.468,-0.14311289038111
0.47025,-0.146112651041468
0.4725,-0.149179324886749
0.47475,-0.152314608760794
0.477,-0.15552024828915
0.47925,-0.15879803944449
0.4815,-0.162149830167323
0.48375,-0.165577522044065
0.486,-0.169083072044683
0.48825,-0.172668494322168
0.4905,-0.176335862076224
0.49275,-0.180087309483623
0.495,-0.183925033697804
0.49725,-0.18785129692036
0.4995,-0.191868428547199
0.50175,-0.195978827392285
0.504,-0.200184963991917
0.50625,-0.204489382992688
0.5085,-0.208894705626405
0.51075,-0.213403632275287
0.513,-0.218018945131009
0.51525,-0.22274351095122
0.5175,-0.227580283917346
0.51975,-0.232532308597653
0.522,-0.237602723019647
0.52425,-0.24279476185614
0.5265,-0.248111759729386
0.52875,-0.253557154637965
0.531,-0.259134491511204
0.53325,-0.264847425896145
0.5355,-0.270699727782283
0.53775,-0.276695285569477
0.54,-0.282838110184668
0.54225,-0.289132339353274
0.5445,-0.295582242031312
0.54675,-0.302192223004615
0.549,-0.308966827661669
0.55125,-0.315910746946962
0.5535,-0.323028822501863
0.55575,-0.330326052000487
0.558,-0.337807594688123
0.56025,-0.345478777130228
0.5625,-0.353345099180238
0.56475,-0.361412240174727
0.567,-0.36968606536484
0.56925,-0.378172632593243
0.5715,-0.386878199226087
0.57375,-0.395809229350016
0.576,-0.404972401244412
0.57825,-0.414374615139606
0.5805,-0.424023001272092
0.58275,-0.433924928248174
0.585,-0.444088011727909
0.58725,-0.454520123441634
0.5895,-0.465229400551743
0.59175,-0.476224255372843
0.594,-0.487513385463901
0.59625,-0.499105784106338
0.5985,-0.51101075118263
0.60075,-0.5232379044703
0.603,-0.535797191366777
0.60525,-0.548698901060997
0.6075,-0.561953677168142
0.60975,-0.575572530844427
0.612,-0.589566854399254
0.61425,-0.603948435422649
0.6165,-0.61872947144632
0.61875,-0.633922585157191
0.621,-0.649540840182779
0.62325,-0.665597757468216
0.6255,-0.682107332265248
0.62775,-0.699084051754036
0.63,-0.71654291331891
0.63225,-0.734499443499899
0.6345,-0.752969717642089
0.63675,-0.771970380265404
0.639,-0.791518666177754
0.64125,-0.811632422354903
0.6435,-0.832330130610735
0.64575,-0.853630931081943
0.648,-0.875554646551448
0.65025,-0.898121807635159
0.6525,-0.921353678856863
0.65475,-0.945272285636308
0.657,-0.969900442215608
0.65925,-0.99526178054932
0.6615,-1.02138078018358
0.66375,-1.04828279914974
0.666,-1.07599410589799
0.66825,-1.10454191229633
0.6705,-1.13395440772046
0.67275,-1.16426079425964
0.675,-1.19549132306409
0.67725,-1.22767733185869
0.6795,-1.26085128364828
0.68175,-1.29504680663942
0.684,-1.33029873540343
0.68625,-1.36664315330567
0.6885,-1.40411743622608
0.69075,-1.44276029759598
0.693,-1.48261183477687
0.69525,-1.52371357680692
0.6975,-1.56610853354216
0.69975,-1.60984124621997
0.702,-1.65495783947397
0.70425,-1.70150607483121
0.7065,-1.74953540572468
0.70875,-1.7990970340571
0.711,-1.85024396835522
0.71325,-1.90303108355823
0.7155,-1.95751518248897
0.71775,-2.01375505906245
0.72,-2.07181156329389
0.72225,-2.1317476681764
0.7245,-2.19362853850881
0.72675,-2.25752160176525
0.729,-2.32349662111151
0.73125,-2.39162577068823
0.7335,-2.46198371329802
0.73575,-2.53464768065316
0.738,-2.60969755636186
0.74025,-2.68721596185555
0.7425,-2.76728834548597
0.74475,-2.85000307505022
0.747,-2.93545153403343
0.74925,-3.02372822189289
0.7515,-3.11493085874348
0.75375,-3.20916049484234
0.756,-3.30652162530943
0.75825,-3.40712231056024
0.7605,-3.51107430296488
0.76275,-3.61849318028436
0.765,-3.7294984864652
0.76725,-3.84421388039879
0.7695,-3.96276729326372
0.77175,-4.08529109506814
0.774,-4.21192227098414
0.77625,-4.34280260801377
0.7785,-4.47807889243358
0.78075,-4.61790311832087
0.783,-4.7624327072527
0.78525,-4.91183073896858
0.7875,-5.06626619237189
0.78975,-5.22591419568042
0.792,-5.39095628377897
0.79425,-5.56158065981992
0.7965,-5.73798245679019
0.79875,-5.92036399301942
0.801,-6.10893501332695
0.80325,-6.30391290453454
0.8055,-6.50552287020917
0.80775,-6.71399804447931
0.81,-6.92957951825048
0.81225,-7.15251624268499
0.8145,-7.38306476383011
0.81675,-7.62148872802498
0.819,-7.86805807921243
0.82125,-8.12304784525715
0.8235,-8.3867363791865
0.82575,-8.65940288081213
0.828,-8.94132397176625
0.83025,-9.23276902919686
0.8325,-9.53399389600364
0.83475,-9.84523247348302
0.837,-10.1666855597305
0.83925,-10.4985061178443
0.8415,-10.8407799361368
0.84375,-11.1935003749129
0.846,-11.5565355839172
0.84825,-11.929586237393
0.8505,-12.3121315108275
0.85275,-12.7033607999962
0.855,-13.1020887174954
0.85725,-13.5066514678406
0.8595,-13.9147842360358
0.86175,-14.3234823642973
0.864,-14.7288546551635
0.86625,-15.1259859424252
0.8685,-15.5088384230622
0.87075,-15.8702359429593
0.873,-16.2019882899966
0.87525,-16.4952151220597
0.8775,-16.7409094891878
0.87975,-16.9307289643191
0.882,-17.0579209666437
0.88425,-17.1182041485724
0.8865,-17.1103861987969
0.88875,-17.0365404450837
0.891,-16.9016873023949
0.89325,-16.713076964658
0.8955,-16.4792729829251
0.89775,-16.2092515447549
0.9,-15.9116718520778
0.90225,-15.5943850333407
0.9045,-15.264174722413
0.90675,-14.9266805222092
0.909,-14.586443742739
0.91125,-14.2470215412392
0.9135,-13.9111296669752
0.91575,-13.5807882921051
0.918,-13.2574567496024
0.92025,-12.9421507801196
0.9225,-12.6355406491714
0.92475,-12.3380310848699
0.927,-12.0498251786663
0.92925,-11.7709747640855
0.9315,-11.5014197248212
0.93375,-11.2410184184248
0.936,-10.9895710684371
0.93825,-10.7468376457323
0.9405,-10.5125514611607
0.94275,-10.2864294375488
0.945,-10.0681798203783
0.94725,-9.85750791870334
0.9495,-9.65412033503276
0.95175,-9.45772803878672
0.954,-9.26804855687665
0.95625,-9.08480749213919
0.9585,-8.90773953181263
0.96075,-8.73658907080215
0.963,-8.57111054562493
0.96525,-8.41106855269838
0.9675,-8.25623780750996
0.96975,-8.10640298801119
0.972,-7.96135849540561
0.97425,-7.82090815765472
0.9765,-7.68486489497251
0.97875,-7.55305036190911
0.981,-7.42529457701865
0.98325,-7.30143554832731
0.9855,-7.18131890067307
0.98775,-7.06479750933999
0.99,-6.9517311431411
0.99225,-6.84198611913286
0.9945,-6.73543497040173
0.99675,-6.6319561278002
0.999,-6.53143361608318
1.00125,-6.4337567645783
1.0035,-6.33881993228667
1.00575,-6.24652224714045
1.008,-6.15676735902084
1.01025,-6.06946320605626
1.0125,-5.98452179366572
1.01475,-5.90185898577946
1.017,-5.82139430765326
1.01925,-5.74305075968911
1.0215,-5.66675464168099
1.02375,-5.59243538691704
1.026,-5.52002540558681
1.02825,-5.44945993696286
1.0305,-5.3806769098486
1.03275,-5.31361681080858
1.035,-5.24822255972111
1.03725,-5.18443939221876
1.0395,-5.12221474860517
1.04175,-5.06149816886116
1.044,-5.00224119337543
1.04625,-4.94439726905716
1.0485,-4.88792166050868
1.05075,-4.83277136595611
1.053,-4.77890503765492
1.05525,-4.72628290650481
1.0575,-4.67486671062528
1.05975,-4.62461962765871
1.062,-4.57550621058269
1.06425,-4.52749232682722
1.0665,-4.48054510050504
1.06875,-4.43463285757579
1.071,-4.38972507377586
1.07325,-4.34579232515629
1.0755,-4.30280624108106
1.07775,-4.26073945954751
1.08,-4.21956558469876
1.08225,-4.17925914640651
1.0845,-4.13979556180993
1.08675,-4.10115109870329
1.089,-4.06330284067164
1.09125,-4.02622865387992
1.0935,-3.98990715542653
1.09575,-3.95431768317789
1.098,-3.91944026700524
1.10025,-3.88525560134988
1.1025,-3.85174501904716
1.10475,-3.81889046634385
1.107,-3.78667447904696
1.10925,-3.75508015974619
1.1115,-3.72409115605489
1.11375,-3.69369163981819
1.116,-3.66386628723926
1.11825,-3.63460025987802
1.1205,-3.6058791864786
1.12275,-3.57768914558488
1.125,-3.55001664890505
1.12725,-3.52284862538888
1.1295,-3.49617240598293
1.13175,-3.46997570903109
1.134,-3.44424662628947
1.13625,-3.41897360952625
1.1385,-3.39414545767899
1.14075,-3.36975130454292
1.143,-3.34578060696542
1.14525,-3.32222313352314
1.1475,-3.2990689536594
1.14975,-3.27630842726064
1.152,-3.25393219465183
1.15425,-3.23193116699184
1.1565,-3.21029651705058
1.15875,-3.18901967035068
1.161,-3.16809229665755
1.16325,-3.14750630180216
1.1655,-3.12725381982185
1.16775,-3.10732720540516
1.17,-3.08771902662737
1.17225,-3.068422057964
1.1745,-3.04942927357037
1.17675,-3.03073384081555
1.179,-3.01232911405994
1.18125,-2.99420862866602
1.1835,-2.9763660952323
1.18575,-2.95879539404116
1.188,-2.94149056971146
1.19025,-2.92444582604747
1.1925,-2.90765552107586
1.19475,-2.89111416226295
1.197,-2.87481640190488
1.19925,-2.85875703268347
1.2015,-2.8429309833812
1.20375,-2.82733331474858
1.206,-2.81195921551796
1.20825,-2.79680399855787
1.2105,-2.78186309716207
1.21275,-2.76713206146823
1.215,-2.75260655500077
1.21725,-2.73828235133333
1.2195,-2.72415533086572
1.22175,-2.71022147771134
1.224,-2.69647687669039
1.22625,-2.68291771042498
1.2285,-2.66954025653211
1.23075,-2.65634088491081
1.233,-2.64331605511981
1.23525,-2.63046231384233
1.2375,-2.61777629243459
1.23975,-2.60525470455504
1.242,-2.5928943438711
1.24425,-2.58069208184068
1.2465,-2.56864486556556
1.24875,-2.55674971571399
1.251,-2.54500372451011
1.25325,-2.53340405378746
1.2555,-2.52194793310444
1.25775,-2.51063265791951
1.26,-2.49945558782366
1.26225,-2.48841414482846
1.2645,-2.47750581170746
1.26675,-2.46672813038903
1.269,-2.45607870039895
1.27125,-2.44555517735086
1.2735,-2.43515527148291
1.27575,-2.42487674623902
1.278,-2.41471741689314
1.28025,-2.40467514921502
1.2825,-2.39474785817612
1.28475,-2.38493350669419
1.287,-2.37523010441513
1.28925,-2.3656357065311
1.2915,-2.35614841263332
1.29375,-2.34676636559867
1.296,-2.33748775050873
1.29825,-2.32831079360032
1.3005,-2.31923376124637
1.30275,-2.31025495896622
1.305,-2.30137273046425
1.30725,-2.29258545669602
1.3095,-2.28389155496093
1.31175,-2.27528947802056
1.314,-2.2667777132419
1.31625,-2.2583547817645
1.3185,-2.25001923769103
1.32075,-2.24176966730026
1.323,-2.23360468828179
1.32525,-2.22552294899197
1.3275,-2.21752312773018
1.32975,-2.20960393203492
1.332,-2.20176409799897
1.33425,-2.19400238960323
1.3365,-2.18631759806844
1.33875,-2.17870854122433
1.341,-2.17117406289569
1.34325,-2.16371303230472
1.3455,-2.15632434348932
1.34775,-2.14900691473669
1.35,-2.14175968803187
