"Freq [GHz]","dB(St11) []"
0.45,-0.0814561036993548
0.45225,-0.0831204527615579
0.4545,-0.084820314949252
0.45675,-0.0865565477180157
0.459,-0.0883300320735857
0.46125,-0.0901416732984369
0.4635,-0.0919924017033009
0.46575,-0.0938831734045937
0.468,-0.0958149711287098
0.47025,-0.0977888050442132
0.4725,-0.0998057136229809
0.47475,-0.10186676453141
0.477,-0.103973055552829
0.47925,-0.106125715542326
0.4815,-0.108325905415219
0.48375,-0.110574819170498
0.486,-0.112873684950553
0.48825,-0.115223766138647
0.4905,-0.117626362495552
0.49275,-0.120082811336918
0.495,-0.122594488752945
0.49725,-0.125162810872044
0.4995,-0.127789235170178
0.50175,-0.130475261827755
0.504,-0.133222435135875
0.50625,-0.136032344953971
0.5085,-0.13890662822083
0.51075,-0.141846970521155
0.513,-0.144855107709894
0.51525,-0.147932827596651
0.5175,-0.151081971692591
0.51975,-0.154304437022378
0.522,-0.157602178003757
0.52425,-0.16097720839756
0.5265,-0.164431603330953
0.52875,-0.167967501396967
0.531,-0.171587106833382
0.53325,-0.175292691784265
0.5355,-0.1790865986475
0.53775,-0.182971242511922
0.54,-0.186949113687712
0.54225,-0.191022780333886
0.5445,-0.195194891187004
0.54675,-0.199468178395184
0.549,-0.203845460461899
0.55125,-0.208329645304106
0.5535,-0.212923733429505
0.55575,-0.217630821237874
0.558,-0.222454104451772
0.56025,-0.227396881682008
0.5625,-0.23246255813353
0.56475,-0.237654649457745
0.567,-0.242976785757384
0.56925,-0.248432715750436
0.5715,-0.254026311099858
0.57375,-0.259761570916173
0.576,-0.265642626440218
0.57825,-0.271673745913831
0.5805,-0.27785933964642
0.58275,-0.284203965285811
0.585,-0.290712333302135
0.58725,-0.29738931269384
0.5895,-0.304239936925374
0.59175,-0.311269410106466
0.594,-0.318483113423371
0.59625,-0.32588661183292
0.5985,-0.333485661030637
0.60075,-0.341286214704722
0.603,-0.34929443208817
0.60525,-0.357516685821871
0.6075,-0.365959570142026
0.60975,-0.374629909405823
0.612,-0.383534766969901
0.61425,-0.392681454436765
0.6165,-0.402077541284901
0.61875,-0.411730864899055
0.621,-0.421649541017804
0.62325,-0.431841974616246
0.6255,-0.44231687124239
0.62775,-0.453083248826596
0.63,-0.464150449984132
0.63225,-0.475528154831843
0.6345,-0.487226394340625
0.63675,-0.499255564246375
0.639,-0.511626439542926
0.64125,-0.524350189581344
0.6435,-0.537438393801
0.64575,-0.550903058118681
0.648,-0.564756632003074
0.65025,-0.57901202626294
0.6525,-0.593682631578259
0.65475,-0.608782337804801
0.657,-0.624325554083523
0.65925,-0.640327229787362
0.6615,-0.656802876339067
0.66375,-0.673768589934827
0.666,-0.6912410752096
0.66825,-0.709237669881159
0.6705,-0.727776370411076
0.67275,-0.746875858721946
0.675,-0.76655553001136
0.67725,-0.786835521704305
0.6795,-0.807736743586735
0.68175,-0.829280909164312
0.684,-0.85149056829138
0.68625,-0.87438914111637
0.6885,-0.898000953390967
0.69075,-0.922351273191394
0.693,-0.94746634910134
0.69525,-0.973373449906986
0.6975,-1.0001009058557
0.69975,-1.02767815153089
0.702,-1.05613577039659
0.70425,-1.08550554106622
0.7065,-1.11582048535092
0.70875,-1.14711491814386
0.711,-1.17942449919788
0.71325,-1.21278628685469
0.7155,-1.24723879378503
0.71775,-1.28282204480006
0.72,-1.31957763679568
0.72225,-1.35754880089252
0.7245,-1.39678046683601
0.72675,-1.43731932972246
0.729,-1.47921391911925
0.73125,-1.52251467064934
0.7335,-1.56727400011339
0.73575,-1.61354638022574
0.738,-1.6613884200449
0.74025,-1.71085894718368
0.7425,-1.76201909289001
0.74475,-1.81493238009638
0.747,-1.86966481454394
0.74925,-1.92628497909722
0.7515,-1.98486413137684
0.75375,-2.04547630485136
0.756,-2.10819841354535
0.75825,-2.17311036053963
0.7605,-2.24029515046115
0.76275,-2.30983900618583
0.765,-2.38183149000599
0.76725,-2.45636562954823
0.7695,-2.53353804876522
0.77175,-2.61344910436833
0.774,-2.69620302811666
0.77625,-2.78190807543311
0.7785,-2.87067668087862
0.78075,-2.96262562108339
0.783,-3.05787618580746
0.78525,-3.15655435788347
0.7875,-3.25879100287993
0.78975,-3.36472206941478
0.792,-3.47448880114333
0.79425,-3.58823796154103
0.7965,-3.70612207269612
0.79875,-3.82829966941651
0.801,-3.95493557003288
0.80325,-4.08620116533812
0.8055,-4.22227472713203
0.80775,-4.36334173782365
0.81,-4.50959524246521
0.81225,-4.66123622442362
0.8145,-4.81847400560652
0.81675,-4.98152667170469
0.819,-5.150621522233
0.82125,-5.32599554417089
0.8235,-5.50789590661784
0.82575,-5.69658047195221
0.828,-5.89231831633479
0.83025,-6.09539024878548
0.8325,-6.30608931316604
0.83475,-6.52472125078725
0.837,-6.75160489245206
0.83925,-6.98707243676794
0.8415,-7.23146955547151
0.84375,-7.4851552448984
0.846,-7.74850131371227
0.84825,-8.02189135802376
0.8505,-8.30571902265664
0.85275,-8.6003852769443
0.855,-8.90629433892019
0.85725,-9.22384775495174
0.8595,-9.55343597210839
0.86175,-9.89542651418862
0.864,-10.2501475723992
0.86625,-10.6178654282229
0.8685,-10.9987536178132
0.87075,-11.3928511065691
0.873,-11.8000059657697
0.87525,-12.2198001624521
0.8775,-12.6514501980495
0.87975,-13.0936777189882
0.882,-13.5445444001165
0.88425,-14.0012473382431
0.8865,-14.4598765028413
0.88875,-14.915146847879
0.891,-15.360137316837
0.89325,-15.7860990460486
0.8955,-16.1824330946702
0.89775,-16.5369714085596
0.9,-16.836695493883
0.90225,-17.0689562081242
0.9045,-17.2230908138913
0.90675,-17.2921069682555
0.909,-17.2739408641934
0.91125,-17.1718462329148
0.9135,-16.993765991733
0.91575,-16.7509235648634
0.918,-16.4561137128743
0.92025,-16.1221607763862
0.9225,-15.7608194829652
0.92475,-15.3821731486695
0.927,-14.9944399984991
0.92925,-14.6040482415487
0.9315,-14.2158526550936
0.93375,-13.8334018830671
0.936,-13.4592024064577
0.93825,-13.0949526571958
0.9405,-12.7417380422207
0.94275,-12.4001870480969
0.945,-12.0705928958406
0.94725,-11.753006603548
0.9495,-11.4473072311244
0.95175,-11.1532543694457
0.954,-10.8705270430788
0.95625,-10.5987523342744
0.9585,-10.3375262913553
0.96075,-10.0864290774551
0.963,-9.84503583731538
0.96525,-9.61292439123525
0.9675,-9.38968058509015
0.96975,-9.17490191428487
0.972,-8.96819988141914
0.97425,-8.76920142943635
0.9765,-8.57754970410266
0.97875,-8.39290433420824
0.981,-8.21494136916126
0.98325,-8.04335297737102
0.9855,-7.87784698179479
0.98775,-7.71814628888526
0.99,-7.56398825216003
0.99225,-7.41512400041819
0.9945,-7.27131775228035
0.99675,-7.13234613251078
0.999,-6.99799750095138
1.00125,-6.86807130146514
1.0035,-6.7423774357438
1.00575,-6.62073566496616
1.008,-6.50297504092417
1.01025,-6.38893336724419
1.0125,-6.27845669062162
1.01475,-6.17139882149027
1.017,-6.06762088320697
1.01925,-5.9669908886095
1.0215,-5.86938334266878
1.02375,-5.7746788698826
1.026,-5.68276386503135
1.02825,-5.59353016592122
1.0305,-5.50687474676893
1.03275,-5.42269943092729
1.035,-5.34091062170459
1.03725,-5.26141905009296
1.0395,-5.18413953828435
1.04175,-5.10899077791894
1.044,-5.03589512207572
1.04625,-4.96477839007836
1.0485,-4.89556968425118
1.05075,-4.82820121781863
1.053,-4.76260815319709
1.05525,-4.69872844998064
1.0575,-4.63650272197144
1.05975,-4.57587410265162
1.062,-4.51678811853654
1.06425,-4.45919256988936
1.0665,-4.40303741831409
1.06875,-4.34827468077866
1.071,-4.29485832965177
1.07325,-4.2427441983669
1.0755,-4.19188989235393
1.07775,-4.14225470490484
1.08,-4.09379953766277
1.08225,-4.046486825446
1.0845,-4.00028046513809
1.08675,-3.95514574839408
1.089,-3.91104929793001
1.09125,-3.86795900717883
1.0935,-3.82584398311015
1.09575,-3.78467449202549
1.098,-3.74442190815282
1.10025,-3.70505866487609
1.1025,-3.66655820844615
1.10475,-3.6288949540297
1.107,-3.59204424396192
1.10925,-3.5559823080774
1.1115,-3.52068622600181
1.11375,-3.48613389129426
1.116,-3.45230397733719
1.11825,-3.41917590487734
1.1205,-3.38672981112677
1.12275,-3.35494652033932
1.125,-3.32380751578218
1.12725,-3.29329491302792
1.1295,-3.26339143449624
1.13175,-3.23408038517934
1.134,-3.20534562948842
1.13625,-3.17717156916272
1.1385,-3.14954312218597
1.14075,-3.12244570265804
1.143,-3.09586520157294
1.14525,-3.069787968457
1.1475,-3.04420079382349
1.14975,-3.0190908924028
1.152,-2.99444588710928
1.15425,-2.97025379370816
1.1565,-2.94650300614795
1.15875,-2.92318228252569
1.161,-2.90028073165411
1.16325,-2.87778780020154
1.1655,-2.85569326037698
1.16775,-2.83398719813408
1.17,-2.81266000186941
1.17225,-2.79170235159159
1.1745,-2.77110520853897
1.17675,-2.75085980522501
1.179,-2.7309576358913
1.18125,-2.71139044734941
1.1835,-2.69215023019362
1.18575,-2.67322921036751
1.188,-2.65461984106836
1.19025,-2.63631479497397
1.1925,-2.61830695677733
1.19475,-2.60058941601554
1.197,-2.5831554601795
1.19925,-2.56599856809224
1.2015,-2.54911240354388
1.20375,-2.53249080917193
1.206,-2.51612780057624
1.20825,-2.50001756065842
1.2105,-2.48415443417595
1.21275,-2.46853292250188
1.215,-2.45314767858111
1.21725,-2.43799350207508
1.2195,-2.42306533468664
1.22175,-2.40835825565789
1.224,-2.39386747743317
1.22625,-2.37958834148088
1.2285,-2.36551631426709
1.23075,-2.35164698337485
1.233,-2.33797605376323
1.23525,-2.32449934416022
1.2375,-2.31121278358419
1.23975,-2.29811240798857
1.242,-2.28519435702479
1.24425,-2.27245487091883
1.2465,-2.25989028745665
1.24875,-2.24749703907435
1.251,-2.2352716500488
1.25325,-2.22321073378469
1.2555,-2.21131099019449
1.25775,-2.19956920316741
1.26,-2.18798223812395
1.26225,-2.17654703965288
1.2645,-2.16526062922732
1.26675,-2.15412010299689
1.269,-2.14312262965308
1.27125,-2.13226544836505
1.2735,-2.12154586678318
1.27575,-2.11096125910774
1.278,-2.1005090642204
1.28025,-2.09018678387609
1.2825,-2.07999198095303
1.28475,-2.06992227775875
1.287,-2.05997535439009
1.28925,-2.05014894714509
1.2915,-2.04044084698502
1.29375,-2.03084889804465
1.296,-2.02137099618895
1.29825,-2.01200508761471
1.3005,-2.00274916749531
1.30275,-1.99360127866722
1.305,-1.98455951035667
1.30725,-1.97562199694509
1.3095,-1.96678691677203
1.31175,-1.95805249097408
1.314,-1.94941698235872
1.31625,-1.94087869431179
1.3185,-1.9324359697374
1.32075,-1.92408719002926
1.323,-1.91583077407223
1.32525,-1.90766517727321
1.3275,-1.89958889062019
1.32975,-1.89160043976873
1.332,-1.88369838415474
1.33425,-1.87588131613284
1.3365,-1.86814786013931
1.33875,-1.86049667187905
1.341,-1.85292643753537
1.34325,-1.84543587300232
1.3455,-1.83802372313849
1.34775,-1.83068876104165
1.35,-1.82342978734373
