"Freq [GHz]","dB(St(Driver_T1,Driver_T1)) []"
1,-1.00885318571599
1.005,-0.963464785299472
1.01,-0.918900734296452
1.015,-0.875497590698027
1.02,-0.833627508213016
1.025,-0.793695074916202
1.03,-0.756131801556296
1.035,-0.721387888725047
1.04,-0.689921020927682
1.045,-0.66218213302454
1.05,-0.638598373754515
1.055,-0.619553840568785
1.06,-0.605369048809445
1.065,-0.596280474554914
1.07,-0.592421805769325
1.075,-0.593808676699429
1.08,-0.600328583334884
1.085,-0.611737351810772
1.09,-0.627662972297647
1.095,-0.64761688562481
1.1,-0.671012028725456
1.105,-0.697186237685576
1.11,-0.725429092407151
1.115,-0.755010044045993
1.12,-0.785205718583333
1.125,-0.815324603284427
1.13,-0.844727820754946
1.135,-0.872845281416153
1.14,-0.899187087100924
1.145,-0.923350565773898
1.15,-0.94502371071903
1.155,-0.963986068635484
1.16,-0.98010828667614
1.165,-0.99335162131386
1.17,-1.00376877159419
1.175,-1.01150746394677
1.18,-1.01681831415724
1.185,-1.02006863409762
1.19,-1.02176401007095
1.195,-1.02257956141105
1.2,-1.02340256846199
1.205,-1.0253871795726
1.21,-1.03001931080009
1.215,-1.03918419047342
1.22,-1.05521815867492
1.225,-1.08090805572559
1.23,-1.1193756424989
1.235,-1.17375840834088
1.24,-1.24659604799924
1.245,-1.33890057319566
1.25,-1.44907589474755
1.255,-1.57213356633028
1.26,-1.69982674934655
1.265,-1.82208123527046
1.27,-1.92937514584491
1.275,-2.01501458921258
1.28,-2.07626496840015
1.285,-2.11405707044135
1.29,-2.13178103975643
1.295,-2.13391794555387
1.3,-2.12500077099695
1.305,-2.10903400508919
1.31,-2.08928183282184
1.315,-2.06827727674176
1.32,-2.04793177953444
1.325,-2.02967154751541
1.33,-2.01456455540006
1.335,-2.00342499140188
1.34,-1.99689345400193
1.345,-1.99549594664046
1.35,-1.99968599160633
1.355,-2.00987395623754
1.36,-2.02644694998791
1.365,-2.04978185710984
1.37,-2.08025338492065
1.375,-2.11823847279039
1.38,-2.16411801206828
1.385,-2.21827654639313
1.39,-2.28110042833887
1.395,-2.3529747791945
1.4,-2.43427951579819
1.405,-2.525384657968
1.41,-2.62664510177417
1.415,-2.73839502969723
1.42,-2.86094212239663
1.425,-2.99456173345854
1.43,-3.13949118422396
1.435,-3.29592432767657
1.44,-3.4640065163566
1.445,-3.64383008827244
1.45,-3.83543045666342
1.455,-4.03878285502242
1.46,-4.25379974965451
1.465,-4.48032889054607
1.47,-4.7181519302197
1.475,-4.96698350252929
1.48,-5.2264706219196
1.485,-5.49619224118891
1.49,-5.77565879448886
1.495,-6.06431155396437
1.5,-6.36152164443937
1.505,-6.66658859194326
1.51,-6.97873832950003
1.515,-7.29712064822171
1.52,-7.62080616399615
1.525,-7.94878297027368
1.53,-8.27995326524672
1.535,-8.61313037520668
1.54,-8.94703674064395
1.545,-9.2803035794075
1.55,-9.61147307826317
1.555,-9.93900407013749
1.56,-10.2612822017492
1.565,-10.5766355517667
1.57,-10.8833564872619
1.575,-11.1797302147237
1.58,-11.4640699745663
1.585,-11.734758155157
1.59,-11.9902918123762
1.595,-12.2293302661027
1.6,-12.4507417370403
1.605,-12.6536455362638
1.61,-12.8374462615832
1.615,-13.0018568707107
1.62,-13.1469083847208
1.625,-13.272945218826
1.63,-13.3806065486916
1.635,-13.4707954658397
1.64,-13.5446387379933
1.645,-13.6034406206695
1.65,-13.64863431375
1.655,-13.6817343668824
1.66,-13.7042927269788
1.665,-13.7178603382539
1.67,-13.7239553929518
1.675,-13.724038599902
1.68,-13.7194952557119
1.685,-13.7116234952849
1.69,-13.7016278576875
1.695,-13.6906172034584
1.7,-13.6796060249724
1.705,-13.6695182669664
1.71,-13.6611928892171
1.715,-13.6553905340468
1.72,-13.6528007914861
1.725,-13.6540496744187
1.73,-13.6597070196833
1.735,-13.6702936170882
1.74,-13.6862879370469
1.745,-13.7081323807196
1.75,-13.7362390164005
1.755,-13.7709947947892
1.76,-13.8127662559943
1.765,-13.8619037546167
1.77,-13.9187452377381
1.775,-13.9836196154589
1.78,-14.0568497658826
1.785,-14.1387552169503
1.79,-14.2296545469367
1.795,-14.3298675441865
1.8,-14.4397171651341
1.805,-14.559531328048
1.81,-14.689644578446
1.815,-14.8303996608227
1.82,-14.9821490303175
1.825,-15.1452563372323
1.83,-15.3200979169384
1.835,-15.5070643176869
1.84,-15.7065618991603
1.845,-15.9190145353131
1.85,-16.1448654561333
1.855,-16.3845792644759
1.86,-16.6386441661149
1.865,-16.9075744537237
1.87,-17.1919132887374
1.875,-17.4922358291765
1.88,-17.8091527567396
1.885,-18.1433142632022
1.89,-18.4954145648658
1.895,-18.8661970252562
1.9,-19.2564599814936
1.905,-19.6670633903422
1.91,-20.0989364381241
1.915,-20.5530862978924
1.92,-21.03060827257
1.925,-21.5326976419656
1.93,-22.0606636465184
1.935,-22.6159462096669
1.94,-23.2001362523463
1.945,-23.8150008319694
1.95,-24.4625149145945
1.955,-25.1449024743631
1.96,-25.8646909865483
1.965,-26.6247855252558
1.97,-27.428572055536
1.975,-28.2800648736994
1.98,-29.1841217318813
1.985,-30.1467640229315
1.99,-31.1756618953203
1.995,-32.2808809581946
2,-33.4760474225407
2.005,-34.7801849558807
2.01,-36.220616949269
2.015,-37.8374498687811
2.02,-39.6897320894394
2.025,-41.8590417934116
2.03,-44.4164789004289
2.035,-47.1416384169649
2.04,-48.4639698603643
2.045,-46.6902180357623
2.05,-43.738471345998
2.055,-41.0070826149293
2.06,-38.6575473443921
2.065,-36.6123563663392
2.07,-34.7913928835594
2.075,-33.1375182190517
2.08,-31.6121145436296
2.085,-30.1889675871702
2.09,-28.8498939333823
2.095,-27.5819167638771
2.1,-26.3754786969519
2.105,-25.2233101741329
2.11,-24.1197077352545
2.115,-23.0600691406493
2.12,-22.0405904165377
2.125,-21.058065741772
2.13,-20.109753203733
2.135,-19.1932831526423
2.14,-18.306594417329
2.145,-17.4478889844105
2.15,-16.615599095567
2.155,-15.8083628291071
2.16,-15.0250055641748
2.165,-14.2645255661926
2.17,-13.5260824602368
2.175,-12.8089876880586
2.18,-12.1126962460592
2.185,-11.4367991220566
2.19,-10.7810159187734
2.195,-10.1451871932124
2.2,-9.52926606949113
2.205,-8.93330871141722
2.21,-8.3574632813687
2.215,-7.80195707374343
2.22,-7.26708160241466
2.225,-6.75317554754507
2.23,-6.26060562889393
2.235,-5.78974566589041
2.24,-5.34095429792801
2.245,-4.91455205309554
2.25,-4.51079864538969
2.255,-4.12987152148081
2.26,-3.77184674148762
2.265,-3.43668324348012
2.27,-3.12421139968821
2.275,-2.83412652997309
2.28,-2.56598771741502
2.285,-2.31922190761625
2.29,-2.09313291080508
2.295,-1.88691460716731
2.3,-1.69966741631709
2.305,-1.53041695319867
2.31,-1.37813376063663
2.315,-1.24175307373608
2.32,-1.12019371247001
2.325,-1.01237538899692
2.33,-0.917233927584592
2.335,-0.833734102954745
2.34,-0.760879988949933
2.345,-0.697722862207904
2.35,-0.643366820139897
2.355,-0.596972349359863
2.36,-0.557758123844665
2.365,-0.525001327578692
2.37,-0.498036790991328
2.375,-0.476255210602944
2.38,-0.459100692581069
2.385,-0.446067827888871
2.39,-0.436698472752174
2.395,-0.430578375599432
2.4,-0.427333761888666
2.405,-0.426627962092682
2.41,-0.428158145839776
2.415,-0.431652206736707
2.42,-0.436865827459486
2.425,-0.44357974289721
2.43,-0.451597210041506
2.435,-0.460741686493875
2.44,-0.470854714508006
2.445,-0.48179400402744
2.45,-0.493431705903095
2.455,-0.505652865109944
2.46,-0.518354043104373
2.465,-0.531442098289346
2.47,-0.544833113736369
2.475,-0.558451461732846
2.48,-0.572228995287324
2.485,-0.586104357359169
2.49,-0.600022399225399
2.495,-0.613933700009781
2.5,-0.627794179941594
2.505,-0.641564800355008
2.51,-0.655211343762673
2.515,-0.66870426752119
2.52,-0.682018624639615
2.525,-0.695134045157375
2.53,-0.708034771232681
2.535,-0.720709738640493
2.54,-0.733152696791494
2.545,-0.745362358668957
2.55,-0.757342571268236
2.555,-0.769102496251799
2.56,-0.780656789652927
2.565,-0.792025768633562
2.57,-0.803235552599153
2.575,-0.81431816547663
2.58,-0.825311585756805
2.585,-0.836259731078351
2.59,-0.84721236476897
2.595,-0.858224912933797
2.6,-0.869358182441863
2.605,-0.880677972532487
2.61,-0.89225457573553
2.615,-0.904162167313387
2.62,-0.916478086394901
2.625,-0.929282016229376
2.63,-0.942655075358692
2.635,-0.956678835761536
2.64,-0.971434287923253
2.645,-0.987000776082938
2.65,-1.00345492937322
2.655,-1.02086961600642
2.66,-1.03931294793552
2.665,-1.05884736246306
2.67,-1.07952880510109
2.675,-1.10140603469513
2.68,-1.12452006759374
2.685,-1.14890377270287
2.69,-1.17458162390299
2.695,-1.20156961081908
2.7,-1.22987530363231
2.705,-1.25949806276777
2.71,-1.29042938012511
2.715,-1.32265333519541
2.72,-1.35614714703765
2.725,-1.39088180169163
2.73,-1.42682273416304
2.735,-1.46393054453367
2.74,-1.50216172890747
2.745,-1.54146940764896
2.75,-1.58180403554058
2.755,-1.62311408092171
2.76,-1.66534666342198
2.765,-1.70844814243927
2.77,-1.75236465092524
2.775,-1.79704257125622
2.78,-1.84242895192403
2.785,-1.8884718654468
2.79,-1.93512070927029
2.795,-1.98232645250025
2.8,-2.03004183210319
2.805,-2.07822150275405
2.81,-2.12682214483404
2.815,-2.17580253521723
2.82,-2.22512358547018
2.825,-2.27474835195262
2.83,-2.32464202208276
2.835,-2.37477188074245
2.84,-2.42510726046649
2.845,-2.47561947870995
2.85,-2.52628176512832
2.855,-2.57706918145
2.86,-2.62795853618303
2.865,-2.67892829607377
2.87,-2.72995849594255
2.875,-2.78103064824792
2.88,-2.83212765349023
2.885,-2.88323371234864
2.89,-2.93433424025685
2.895,-2.98541578495871
2.9,-3.03646594744273
2.905,-3.08747330653638
2.91,-3.1384273473388
2.915,-3.18931839358825
2.92,-3.24013754399096
2.925,-3.29087661248392
2.93,-3.34152807235939
2.935,-3.3920850041451
2.94,-3.44254104710883
2.945,-3.49289035423612
2.95,-3.54312755051804
2.955,-3.59324769437717
2.96,-3.64324624205637
2.965,-3.69311901479331
2.97,-3.74286216860505
2.975,-3.79247216651216
2.98,-3.84194575303465
2.985,-3.89127993079941
2.99,-3.94047193910618
2.995,-3.98951923430513
3,-4.03841947184859
