"Freq [GHz]","dB(St(Driver_T1,Driver_T1)) []"
1,-1.44257014026646
1.005,-1.31343385447342
1.01,-1.20068591219391
1.015,-1.10218132704315
1.02,-1.01611783786572
1.025,-0.940975058690673
1.03,-0.875464900907384
1.035,-0.818491048104393
1.04,-0.76911574418511
1.045,-0.726532526318272
1.05,-0.690043821816513
1.055,-0.659042550872471
1.06,-0.632997049254057
1.065,-0.611438757448044
1.07,-0.593952224027021
1.075,-0.580167048273591
1.08,-0.569751446186267
1.085,-0.562407169751962
1.09,-0.557865545747945
1.095,-0.555884430453381
1.1,-0.55624590284284
1.105,-0.558754542722784
1.11,-0.563236162835202
1.115,-0.569536885645322
1.12,-0.577522476410532
1.125,-0.587077863999338
1.13,-0.598106799474005
1.135,-0.61053161934135
1.14,-0.624293095360321
1.145,-0.639350365745454
1.15,-0.655680953541878
1.155,-0.673280887030113
1.16,-0.692164944529345
1.165,-0.712367052274496
1.17,-0.733940869572399
1.175,-0.756960600644001
1.18,-0.781522077886762
1.185,-0.807744167170373
1.19,-0.835770552604917
1.195,-0.865771966325376
1.2,-0.897948938468213
1.205,-0.932535153786712
1.21,-0.96980151414476
1.215,-1.01006101995095
1.22,-1.05367459729754
1.225,-1.10105800890448
1.23,-1.15268999182145
1.235,-1.20912175597734
1.24,-1.2709879426505
1.245,-1.3390190597382
1.25,-1.41405524618139
1.255,-1.49706091289382
1.26,-1.58913926678685
1.265,-1.69154479380542
1.27,-1.80569021089317
1.275,-1.93314181450719
1.28,-2.07559298675228
1.285,-2.23479908164168
1.29,-2.41244706212079
1.295,-2.60991937612884
1.3,-2.82789433559624
1.305,-3.06570976199289
1.31,-3.32041860341085
1.315,-3.58552129653525
1.32,-3.84953589378369
1.325,-4.09493720730438
1.33,-4.29852491743794
1.335,-4.4345709895635
1.34,-4.48127935974911
1.345,-4.42865269326448
1.35,-4.28340170803554
1.355,-4.0673419258656
1.36,-3.8101678577637
1.365,-3.54111114281782
1.37,-3.28340033440003
1.375,-3.05246889943359
1.38,-2.85674864415255
1.385,-2.69951185060342
1.39,-2.58074460633374
1.395,-2.49862041149322
1.4,-2.45050324306906
1.405,-2.43356066610207
1.41,-2.44510102962421
1.415,-2.48273372735513
1.42,-2.54442436953838
1.425,-2.62849211506262
1.43,-2.73357821575781
1.435,-2.85860267774295
1.44,-3.00271834580437
1.445,-3.16526718716664
1.45,-3.34574096314822
1.455,-3.5437470629578
1.46,-3.75897954248938
1.465,-3.99119506192009
1.47,-4.24019327125604
1.475,-4.5058011506623
1.48,-4.78786081611943
1.485,-5.086220321257
1.49,-5.40072700914693
1.495,-5.73122298792696
1.5,-6.07754232026797
1.505,-6.43950952970279
1.51,-6.81693903799614
1.515,-7.20963515808874
1.52,-7.61739227711965
1.525,-8.03999487337638
1.53,-8.47721701896132
1.535,-8.92882102539812
1.54,-9.39455489125078
1.545,-9.8741482083881
1.55,-10.3673061769472
1.555,-10.8737013698718
1.56,-11.3929628798002
1.565,-11.9246624807889
1.57,-12.468297455967
1.575,-13.0232697966512
1.58,-13.5888615933935
1.585,-14.1642066489502
1.59,-14.7482586917626
1.595,-15.3397571098699
1.6,-15.9371919162511
1.605,-16.5387707437088
1.61,-17.1423920596004
1.615,-17.7456304166733
1.62,-18.3457412060073
1.625,-18.9396936414364
1.63,-19.5242409394824
1.635,-20.0960350447208
1.64,-20.6517889998728
1.645,-21.1884828185282
1.65,-21.7035990823851
1.655,-22.1953643796438
1.66,-22.6629652355743
1.665,-23.1067057010318
1.67,-23.5280802553804
1.675,-23.9297493859842
1.68,-24.3154223754851
1.685,-24.6896670887138
1.69,-25.0576752115891
1.695,-25.4250112873598
1.7,-25.7973657168674
1.705,-26.1803180487424
1.71,-26.5790997495986
1.715,-26.9983261442653
1.72,-27.4416443313434
1.725,-27.911215195885
1.73,-28.4069116035809
1.735,-28.925077002427
1.74,-29.4566772918241
1.745,-29.9847783167908
1.75,-30.481678436272
1.755,-30.9069861620755
1.76,-31.2094252736838
1.765,-31.3358190529761
1.77,-31.2474501715873
1.775,-30.9361331830477
1.78,-30.4281507409259
1.785,-29.7727205387839
1.79,-29.0243558856464
1.795,-28.2300208613671
1.8,-27.4243166067297
1.805,-26.6301118863319
1.81,-25.8612502211562
1.815,-25.1253628325994
1.82,-24.4260832035015
1.825,-23.7645916023227
1.83,-23.1406263909946
1.835,-22.5531227780681
1.84,-22.0006071263766
1.845,-21.4814360898333
1.85,-20.9939390508055
1.855,-20.5365009900179
1.86,-20.1076090104645
1.865,-19.705876934747
1.87,-19.3300569053268
1.875,-18.979043515161
1.88,-18.6518738935955
1.885,-18.347725875072
1.89,-18.0659155804187
1.895,-17.8058952540975
1.9,-17.5672519102558
1.905,-17.3497071750401
1.91,-17.1531186293826
1.915,-16.9774829298666
1.92,-16.8229410010747
1.925,-16.689785644542
1.93,-16.5784719964373
1.935,-16.4896313928745
1.94,-16.4240893782381
1.945,-16.3828888347403
1.95,-16.3673195464938
1.955,-16.3789559782632
1.96,-16.4197057083156
1.965,-16.4918719003292
1.97,-16.5982345790881
1.975,-16.7421575267231
1.98,-16.9277307322585
1.985,-17.1599631685491
1.99,-17.4450483860104
1.995,-17.7907380606057
2,-18.2068800353169
2.005,-18.7062149224721
2.01,-19.3055938418834
2.015,-20.0279107340527
2.02,-20.9053056370347
2.025,-21.9847531229895
2.03,-23.3383945569999
2.035,-25.0837863294213
2.04,-27.4242322997278
2.045,-30.700734490171
2.05,-34.8331487102699
2.055,-34.4917723359694
2.06,-29.769435405281
2.065,-25.9220750568031
2.07,-23.0079189042264
2.075,-20.6883027049397
2.08,-18.7621200816902
2.085,-17.1133126664129
2.09,-15.6708540878228
2.095,-14.3886695575775
2.1,-13.2353787991371
2.105,-12.1887403257911
2.11,-11.23246121182
2.115,-10.3542683294318
2.12,-9.54468947305639
2.125,-8.79625340043344
2.13,-8.10294760179024
2.135,-7.4598405772725
2.14,-6.86281263401701
2.145,-6.30836042823288
2.15,-5.79345298748322
2.155,-5.31542454890462
2.16,-4.87189428907826
2.165,-4.46070604717135
2.17,-4.07988311754115
2.175,-3.72759450546904
2.18,-3.40212994029815
2.185,-3.10188157313701
2.19,-2.82533074516555
2.195,-2.57103855662117
2.2,-2.33763923304527
2.205,-2.1238354977033
2.21,-1.92839533176857
2.215,-1.75014964591324
2.22,-1.58799050410557
2.225,-1.44086963650134
2.23,-1.30779705617983
2.235,-1.18783965643569
2.24,-1.08011971350744
2.245,-0.983813255988448
2.25,-0.898148288620488
2.255,-0.822402876499961
2.26,-0.755903107559593
2.265,-0.698020957992527
2.27,-0.648172088311826
2.275,-0.605813598051101
2.28,-0.57044176556881
2.285,-0.541589796698032
2.29,-0.518825602603139
2.295,-0.501749623544761
2.3,-0.489992711580444
2.305,-0.483214081718387
2.31,-0.48109933780236
2.315,-0.483358576492863
2.32,-0.48972457014056
2.325,-0.499951027116683
2.33,-0.513810926246845
2.335,-0.53109492035779
2.34,-0.551609802554091
2.345,-0.575177027656575
2.35,-0.601631280223786
2.355,-0.630819079711184
2.36,-0.662597412580536
2.365,-0.696832380537311
2.37,-0.7333978535444
2.375,-0.772174115842624
2.38,-0.813046492921646
2.385,-0.855903947264067
2.39,-0.90063763078462
2.395,-0.947139382275012
2.4,-0.995300158944574
2.405,-1.0450083924325
2.41,-1.09614826161725
2.415,-1.14859787733982
2.42,-1.20222737800168
2.425,-1.25689694013712
2.43,-1.31245471474797
2.435,-1.36873470869081
2.44,-1.42555464096946
2.445,-1.48271381659304
2.45,-1.5399910758099
2.455,-1.59714289392565
2.46,-1.65390172623113
2.465,-1.70997471311339
2.47,-1.76504288104127
2.475,-1.81876099411215
2.48,-1.87075822585129
2.485,-1.92063982899197
2.49,-1.9679899784511
2.495,-2.01237594576667
2.5,-2.05335372805276
2.505,-2.09047519794162
2.51,-2.12329676142259
2.515,-2.15138940878627
2.52,-2.17434992418151
2.525,-2.19181288964984
2.53,-2.20346299193627
2.535,-2.20904703014862
2.54,-2.20838494626916
2.545,-2.20137917450037
2.55,-2.18802164133405
2.555,-2.16839785106013
2.56,-2.14268765713801
2.565,-2.11116253484951
2.57,-2.07417941310272
2.575,-2.03217136627454
2.58,-1.98563568298362
2.585,-1.93511999396899
2.59,-1.88120723981687
2.595,-1.8245002848928
2.6,-1.76560694024324
2.605,-1.70512605743299
2.61,-1.6436352146453
2.615,-1.5816803553062
2.62,-1.51976757636334
2.625,-1.45835711325319
2.63,-1.39785944210323
2.635,-1.33863332263611
2.64,-1.28098553908485
2.645,-1.22517205936265
2.65,-1.17140032069477
2.655,-1.11983235769097
2.66,-1.07058851089612
2.665,-1.02375148503902
2.67,-0.979370562064772
2.675,-0.937465811070664
2.68,-0.898032172886327
2.685,-0.861043329535523
2.69,-0.826455297197972
2.695,-0.794209705143725
2.7,-0.764236742437629
2.705,-0.736457769295377
2.71,-0.71078760126297
2.715,-0.687136482425836
2.72,-0.665411769183689
2.725,-0.645519349283457
2.73,-0.627364822266835
2.735,-0.61085446768185
2.74,-0.595896026681764
2.745,-0.582399321280474
2.75,-0.570276733779864
2.755,-0.559443566910066
2.76,-0.549818303160853
2.765,-0.541322779728457
2.77,-0.53388229352392
2.775,-0.527425648830656
2.78,-0.521885158486224
2.785,-0.517196607909468
2.79,-0.513299189902549
2.795,-0.510135416924072
2.8,-0.507651016447506
2.805,-0.505794814076815
2.81,-0.504518608277316
2.815,-0.503777039881283
2.82,-0.50352745893187
2.825,-0.503729790924032
2.83,-0.504346404075251
2.835,-0.505341978901937
2.84,-0.506683381080274
2.845,-0.508339538323293
2.85,-0.51028132180384
2.855,-0.512481432486385
2.86,-0.514914292596404
2.865,-0.517555942347713
2.87,-0.520383941961079
2.875,-0.523377278940336
2.88,-0.526516280518601
2.885,-0.529782531147222
2.89,-0.53315879487063
2.895,-0.536628942407864
2.9,-0.540177882748083
2.905,-0.543791499057557
2.91,-0.5474565886913
2.915,-0.551160807101568
2.92,-0.554892615436756
2.925,-0.558641231628351
2.93,-0.562396584768803
2.935,-0.566149272589639
2.94,-0.569890521856738
2.945,-0.573612151507693
2.95,-0.577306538363874
2.955,-0.580966585259158
2.96,-0.584585691435075
2.965,-0.588157725060701
2.97,-0.591676997743763
2.975,-0.595138240907662
2.98,-0.598536583916288
2.985,-0.601867533836398
2.99,-0.605126956733818
2.995,-0.608311060407064
3,-0.611416378467567
