"Freq [GHz]","dB(St(Driver_T1,Driver_T1)) []"
1,-1.47537254793491
1.005,-1.38413772557946
1.01,-1.29921751016618
1.015,-1.22054285244228
1.02,-1.14802620609364
1.025,-1.08156184667891
1.03,-1.02102580596755
1.035,-0.966275605391886
1.04,-0.917149938090782
1.045,-0.873468423466184
1.05,-0.835031538606931
1.055,-0.801620815239139
1.06,-0.772999377322078
1.065,-0.748912881575768
1.07,-0.729090909880901
1.075,-0.713248847589912
1.08,-0.701090264530344
1.085,-0.692309795352599
1.09,-0.686596492741071
1.095,-0.683637601222713
1.1,-0.683122671787748
1.105,-0.684747909797823
1.11,-0.688220622775245
1.115,-0.693263613142327
1.12,-0.69961934648492
1.125,-0.7070537209571
1.13,-0.715359269960696
1.135,-0.72435764920486
1.14,-0.733901290385102
1.145,-0.743874145310676
1.15,-0.754191493298168
1.155,-0.764798836926555
1.16,-0.775669962155385
1.165,-0.786804283733109
1.17,-0.798223631835996
1.175,-0.809968658234952
1.18,-0.822095048737088
1.185,-0.834669723510145
1.19,-0.847767189874256
1.195,-0.861466185984882
1.2,-0.875846721831217
1.205,-0.890987589557479
1.21,-0.906964381359951
1.215,-0.923848022614299
1.22,-0.941703802174075
1.225,-0.960590861890359
1.23,-0.980562093569419
1.235,-1.00166438348625
1.24,-1.02393914146941
1.245,-1.04742305253336
1.25,-1.0721489930271
1.255,-1.09814705929992
1.26,-1.12544566409045
1.265,-1.15407266349226
1.27,-1.18405648488581
1.275,-1.21542723325274
1.28,-1.2482177595639
1.285,-1.28246468030326
1.29,-1.3182093416302
1.295,-1.35549872519751
1.3,-1.39438629530503
1.305,-1.43493278896047
1.31,-1.47720695164084
1.315,-1.52128622220092
1.32,-1.56725737055537
1.325,-1.61521709154862
1.33,-1.66527255790711
1.335,-1.71754193439623
1.34,-1.77215485434201
1.345,-1.82925285856516
1.35,-1.88898979555519
1.355,-1.95153218041602
1.36,-2.01705950877754
1.365,-2.08576452051299
1.37,-2.15785340677094
1.375,-2.23354595254694
1.38,-2.31307560582939
1.385,-2.39668946329341
1.39,-2.48464816163481
1.395,-2.57722566298308
1.4,-2.67470892245822
1.405,-2.77739742589813
1.41,-2.88560258612396
1.415,-2.99964698687315
1.42,-3.11986346473524
1.425,-3.24659402107707
1.43,-3.38018855800609
1.435,-3.52100343482804
1.44,-3.66939984407696
1.445,-3.82574200885653
1.45,-3.99039520567772
1.455,-4.16372361888504
1.46,-4.34608803373048
1.465,-4.53784337470372
1.47,-4.7393360932972
1.475,-4.95090140435323
1.48,-5.17286036181539
1.485,-5.4055167523355
1.49,-5.64915376797775
1.495,-5.90403039636209
1.5,-6.17037743712185
1.505,-6.44839301659197
1.51,-6.73823742727257
1.515,-7.04002706392697
1.52,-7.35382716343071
1.525,-7.67964298028986
1.53,-8.01740894443643
1.535,-8.36697525426646
1.54,-8.72809126019424
1.545,-9.10038490090971
1.55,-9.48333738166043
1.555,-9.87625225784113
1.56,-10.2782181508249
1.565,-10.6880645420294
1.57,-11.1043105611528
1.575,-11.525107534827
1.58,-11.9481774518818
1.585,-12.3707515962939
1.59,-12.7895165099995
1.595,-13.2005781161739
1.6,-13.5994588466099
1.605,-13.9811459814367
1.61,-14.3402103874724
1.615,-14.6710110675921
1.62,-14.9679901158133
1.625,-15.2260440446721
1.63,-15.4409336063809
1.635,-15.6096721241938
1.64,-15.7308218195875
1.645,-15.8046367909963
1.65,-15.8330209657211
1.655,-15.819310540054
1.66,-15.7679280982021
1.665,-15.6839766042872
1.67,-15.5728411373164
1.675,-15.4398492681053
1.68,-15.290016970323
1.685,-15.1278848522701
1.69,-14.9574342898232
1.695,-14.7820656078161
1.7,-14.6046191237488
1.705,-14.4274221745034
1.71,-14.2523490650291
1.715,-14.0808848130801
1.72,-13.9141869114578
1.725,-13.7531418618697
1.73,-13.5984149889398
1.735,-13.4504931654357
1.74,-13.3097207381364
1.745,-13.176329285528
1.75,-13.0504619779491
1.755,-12.9321933293611
1.76,-12.8215450822422
1.765,-12.718498887909
1.77,-12.6230063547974
1.775,-12.5349969486972
1.78,-12.4543841476624
1.785,-12.3810701828986
1.79,-12.3149496359126
1.795,-12.2559121110974
1.8,-12.2038441607217
1.805,-12.1586306048016
1.81,-12.1201553603927
1.815,-12.088301872367
1.82,-12.0629532197824
1.825,-12.0439919577122
1.83,-12.0312997432132
1.835,-12.0247567854091
1.84,-12.0242411530279
1.845,-12.0296279677812
1.85,-12.0407885084347
1.855,-12.0575892480616
1.86,-12.0798908456129
1.865,-12.1075471124253
1.87,-12.1404039745083
1.875,-12.1782984522828
1.88,-12.221057680799
1.885,-12.2684979952281
1.89,-12.3204241085042
1.895,-12.3766284102531
1.9,-12.4368904184537
1.905,-12.5009764174496
1.91,-12.5686393177721
1.915,-12.6396187744996
1.92,-12.7136416013108
1.925,-12.7904225166695
1.93,-12.869665256412
1.935,-12.9510640830648
1.94,-13.034305716214
1.945,-13.1190716999447
1.95,-13.2050412126106
1.955,-13.2918943109903
1.96,-13.3793155853674
1.965,-13.4669981846301
1.97,-13.5546481516872
1.975,-13.6419889901799
1.98,-13.7287663646258
1.985,-13.8147528189429
1.99,-13.8997523839402
1.995,-13.9836049339854
2,-14.066190147546
2.005,-14.1474309262217
2.01,-14.2272961322653
2.015,-14.3058025148903
2.02,-14.383015709669
2.025,-14.4590502111988
2.03,-14.534068234519
2.035,-14.6082773926239
2.04,-14.6819271226264
2.045,-14.7553037883287
2.05,-14.8287243687439
2.055,-14.9025286071807
2.06,-14.977069440645
2.065,-15.0527014515734
2.07,-15.1297669806272
2.075,-15.2085794084561
2.08,-15.2894029552994
2.085,-15.3724281620521
2.09,-15.4577420121735
2.095,-15.5452914472436
2.1,-15.6348388532119
2.105,-15.7259080097417
2.11,-15.8177191043568
2.115,-15.909111881395
2.12,-15.9984570712694
2.125,-16.0835582712427
2.13,-16.1615498417289
2.135,-16.2288015353951
2.14,-16.2808476202465
2.145,-16.3123666121035
2.15,-16.3172454603531
2.155,-16.2887652396622
2.16,-16.2199383328398
2.165,-16.1040039461699
2.17,-15.9350479534252
2.175,-15.7086624245792
2.18,-15.422519286775
2.185,-15.0767258877323
2.19,-14.6738718226277
2.195,-14.2187558801811
2.2,-13.7178662950372
2.205,-13.1787405338336
2.21,-12.6093356108528
2.215,-12.0175052947324
2.22,-11.4106300662923
2.225,-10.795401125728
2.23,-10.1777319969942
2.235,-9.56276062518582
2.24,-8.9549060811735
2.245,-8.35795106769741
2.25,-7.77512996766613
2.255,-7.20920982679115
2.26,-6.66255757722406
2.265,-6.13719098902275
2.27,-5.63481361979755
2.275,-5.15683580301203
2.28,-4.70438477536596
2.285,-4.27830758831676
2.29,-3.87917058401364
2.295,-3.5072589963831
2.3,-3.16257970586694
2.305,-2.84486939003946
2.31,-2.5536093610305
2.315,-2.28804738030152
2.32,-2.04722581737197
2.325,-1.83001478257492
2.33,-1.63514838946783
2.335,-1.46126211601738
2.34,-1.30692931258858
2.345,-1.17069518964434
2.35,-1.05110703028138
2.355,-0.946739832652126
2.36,-0.856217028252889
2.365,-0.778226297825743
2.37,-0.711530792973384
2.375,-0.654976263100067
2.38,-0.607494691997764
2.385,-0.56810508202722
2.39,-0.535912004959647
2.395,-0.510102485073458
2.4,-0.489941707327147
2.405,-0.474767963165976
2.41,-0.463987167083726
2.415,-0.457067203719376
2.42,-0.453532300878258
2.425,-0.452957569533035
2.43,-0.45496380751674
2.435,-0.45921262849865
2.44,-0.465401950801569
2.445,-0.473261860416256
2.45,-0.4825508479563
2.455,-0.493052409141502
2.46,-0.504571991711994
2.465,-0.516934267629632
2.47,-0.529980707339569
2.475,-0.543567432201984
2.48,-0.557563321539545
2.485,-0.571848351754162
2.49,-0.586312146403184
2.495,-0.600852717807311
2.5,-0.615375382558621
2.505,-0.629791835111575
2.51,-0.644019365406665
2.515,-0.657980208149551
2.52,-0.67160101291744
2.525,-0.684812425669014
2.53,-0.697548773481371
2.535,-0.709747845418905
2.54,-0.721350763349304
2.545,-0.732301937256783
2.55,-0.74254910015959
2.555,-0.752043418114353
2.56,-0.76073967098224
2.565,-0.768596499638714
2.57,-0.775576715129051
2.575,-0.781647664906424
2.58,-0.78678165074089
2.585,-0.790956392162441
2.59,-0.794155528410178
2.595,-0.79636915081876
2.6,-0.797594356405848
2.605,-0.797835812161056
2.61,-0.79710631821792
2.615,-0.795427356764397
2.62,-0.79282961227338
2.625,-0.789353447480564
2.63,-0.785049318578837
2.635,-0.779978112418841
2.64,-0.774211388190813
2.645,-0.767831506198742
2.65,-0.760931627006413
2.655,-0.753615565506529
2.66,-0.745997486393595
2.665,-0.738201430140865
2.67,-0.730360661893836
2.675,-0.722616839665551
2.68,-0.715119002781284
2.685,-0.708022386559135
2.69,-0.701487074573188
2.695,-0.695676505335517
2.7,-0.690755855624874
2.705,-0.686890327738054
2.71,-0.684243372386137
2.715,-0.682974882553309
2.72,-0.683239396154462
2.725,-0.685184346584375
2.73,-0.688948400118828
2.735,-0.694659917549754
2.74,-0.702435574432954
2.745,-0.712379170001936
2.75,-0.724580649334118
2.755,-0.739115356993617
2.76,-0.756043533416976
2.765,-0.77541005808344
2.77,-0.797244436358705
2.775,-0.821561020144154
2.78,-0.848359446389807
2.785,-0.877625272374659
2.79,-0.909330782591813
2.795,-0.943435939195649
2.8,-0.979889446301119
2.805,-1.01862989792953
2.81,-1.05958697997276
2.815,-1.10268269805759
2.82,-1.14783260545988
2.825,-1.19494700805823
2.83,-1.24393212653779
2.835,-1.29469119947677
2.84,-1.34712551440972
2.845,-1.40113535732331
2.85,-1.45662087419395
2.855,-1.51348284103918
2.86,-1.57162334147307
2.865,-1.6309463529006
2.87,-1.69135824424996
2.875,-1.75276818953248
2.88,-1.81508850256389
2.885,-1.87823489890574
2.89,-1.94212669153279
2.895,-2.00668692694015
2.9,-2.07184246841324
2.905,-2.13752403303488
2.91,-2.20366618873103
2.915,-2.27020731729462
2.92,-2.33708954890231
2.925,-2.40425867317674
2.93,-2.47166403136668
2.935,-2.53925839373551
2.94,-2.6069978257763
2.945,-2.6748415464206
2.95,-2.74275178098152
2.955,-2.8106936111779
2.96,-2.8786348242239
2.965,-2.94654576264118
2.97,-3.01439917615735
2.975,-3.08217007679442
2.98,-3.14983559802183
2.985,-3.21737485864965
2.99,-3.2847688319655
2.995,-3.35200022047176
3,-3.41905333645482
