"Freq [GHz]","dB(St(Driver_T1,Driver_T1)) []"
1,-0.841211207976699
1.005,-0.79086812596091
1.01,-0.748803534716199
1.015,-0.714223156296884
1.02,-0.686315946217276
1.025,-0.664295226918509
1.03,-0.64742737687802
1.035,-0.635049248390093
1.04,-0.626576247694678
1.045,-0.621503277908881
1.05,-0.619400675436031
1.055,-0.619907007381823
1.06,-0.622720249726658
1.065,-0.627588505207409
1.07,-0.63430108694737
1.075,-0.642680508125499
1.08,-0.652575685362613
1.085,-0.663856482782156
1.09,-0.676409590265984
1.095,-0.69013563735878
1.1,-0.704947387308755
1.105,-0.720768827600945
1.11,-0.737534967930241
1.115,-0.755192168046177
1.12,-0.773698840908274
1.125,-0.793026406397612
1.13,-0.813160403540868
1.135,-0.834101701851972
1.14,-0.85586778297695
1.145,-0.878494091229763
1.15,-0.902035475498876
1.155,-0.926567765677131
1.16,-0.95218954497297
1.165,-0.979024196267822
1.17,-1.00722231735902
1.175,-1.03696461784743
1.18,-1.06846543101477
1.185,-1.10197699868926
1.19,-1.13779471709716
1.195,-1.17626356800115
1.2,-1.21778600225618
1.205,-1.26283159092743
1.21,-1.31194880778013
1.215,-1.36577934543908
1.22,-1.42507537283334
1.225,-1.49072006757145
1.23,-1.5637515140585
1.235,-1.64538947608635
1.24,-1.73706331244658
1.245,-1.84043681876518
1.25,-1.95742099005676
1.255,-2.09015676159237
1.26,-2.24093366946392
1.265,-2.41198266269502
1.27,-2.60503734527809
1.275,-2.8204988023823
1.28,-3.05599088782172
1.285,-3.30415262317182
1.29,-3.54992009093674
1.295,-3.76864729698799
1.3,-3.92809079439604
1.305,-3.99756578806614
1.31,-3.96278323880032
1.315,-3.83636243585889
1.32,-3.6536879476002
1.325,-3.45696684798987
1.33,-3.28041730596459
1.335,-3.14449859871579
1.34,-3.05760063054709
1.345,-3.02038819212203
1.35,-3.02969016324045
1.355,-3.0810197718272
1.36,-3.16990354181031
1.365,-3.29244813773765
1.37,-3.44549714086571
1.375,-3.62659733058594
1.38,-3.83389289423692
1.385,-4.06600479188096
1.39,-4.32191974081792
1.395,-4.60089721333157
1.4,-4.90239561151411
1.405,-5.22601591129674
1.41,-5.57146020276984
1.415,-5.93850253492897
1.42,-6.32696975932692
1.425,-6.73673042507747
1.43,-7.16769011881005
1.435,-7.61979194370508
1.44,-8.0930210936719
1.445,-8.58741271224069
1.45,-9.10306244180605
1.455,-9.64013927701141
1.46,-10.1989005444304
1.465,-10.7797090471894
1.47,-11.3830526470732
1.475,-12.009566820607
1.48,-12.6600610379294
1.485,-13.3355502011922
1.49,-14.0372928834365
1.495,-14.7668387909289
1.5,-15.5260888260375
1.505,-16.3173725009447
1.51,-17.1435494793442
1.515,-18.0081450869486
1.52,-18.9155343751184
1.525,-19.8711968557021
1.53,-20.8820763285102
1.535,-21.9571009470308
1.54,-23.1079548085374
1.545,-24.3502578800182
1.55,-25.7054351407634
1.555,-27.2038021398048
1.56,-28.8899074894194
1.565,-30.8322845385678
1.57,-33.1421256892477
1.575,-36.0086107965444
1.58,-39.7329746032132
1.585,-44.1634185597048
1.59,-44.5150495724481
1.595,-40.5445221445721
1.6,-37.2190816267656
1.605,-34.7566434025733
1.61,-32.8507240049304
1.615,-31.3060840834101
1.62,-30.0074515181379
1.625,-28.8835017620902
1.63,-27.8877434314113
1.635,-26.9885458275375
1.64,-26.163674605505
1.645,-25.3971242988649
1.65,-24.6771817918309
1.655,-23.9951835696077
1.66,-23.3446829293266
1.665,-22.7208705521582
1.67,-22.1201585844714
1.675,-21.5398747354952
1.68,-20.9780333333601
1.685,-20.4331620801553
1.69,-19.904170241378
1.695,-19.3902482785261
1.7,-18.8907916439192
1.705,-18.4053432561765
1.71,-17.9335504315511
1.715,-17.4751329682253
1.72,-17.029859784916
1.725,-16.5975320684663
1.73,-16.1779713267961
1.735,-15.7710110982497
1.74,-15.3764913528367
1.745,-14.9942548477678
1.75,-14.624144879201
1.755,-14.2660040128206
1.76,-13.9196734850254
1.765,-13.5849930503056
1.77,-13.2618011140318
1.775,-12.9499350376676
1.78,-12.6492315388764
1.785,-12.3595271349535
1.79,-12.0806585967244
1.795,-11.8124633932942
1.8,-11.554780117167
1.805,-11.3074488853596
1.81,-11.0703117159993
1.815,-10.8432128821442
1.82,-10.6259992456479
1.825,-10.4185205741485
1.83,-10.2206298439408
1.835,-10.0321835307659
1.84,-9.85304188955129
1.845,-9.68306922292793
1.85,-9.52213413699535
1.855,-9.37010978131073
1.86,-9.22687406844909
1.865,-9.0923098666882
1.87,-8.96630515737555
1.875,-8.84875314627594
1.88,-8.73955231559627
1.885,-8.63860640034317
1.89,-8.54582426906935
1.895,-8.46111968476118
1.9,-8.38441091644456
1.905,-8.31562016583818
1.91,-8.25467276583082
1.915,-8.20149609844021
1.92,-8.15601816892826
1.925,-8.11816575958429
1.93,-8.08786207101832
1.935,-8.06502374032211
1.94,-8.04955710392532
1.945,-8.04135354831586
1.95,-8.04028376421583
1.955,-8.04619069000453
1.96,-8.05888089965272
1.965,-8.07811416191239
1.97,-8.10359087559842
1.975,-8.13493707783615
1.98,-8.17168673929243
1.985,-8.21326111899763
1.99,-8.25894507430555
1.995,-8.3078604394423
2,-8.35893693733211
2.005,-8.41088161775838
2.01,-8.46214856274495
2.015,-8.51091159382287
2.02,-8.55504394119973
2.025,-8.59211019912303
2.03,-8.61937717743159
2.035,-8.63385108201301
2.04,-8.63234825738547
2.045,-8.61160484101142
2.05,-8.56842654636732
2.055,-8.49987327907293
2.06,-8.40346508886966
2.065,-8.27738781074899
2.07,-8.12067122307972
2.075,-7.93331222917761
2.08,-7.71632181869867
2.085,-7.47168654988637
2.09,-7.20224992805273
2.095,-6.91153214563444
2.1,-6.60351466212421
2.105,-6.28241755607238
2.11,-5.95249332049623
2.115,-5.61785316666461
2.12,-5.28233361075708
2.125,-4.94940413182508
2.13,-4.62211195228906
2.135,-4.30305754338725
2.14,-3.99439380592369
2.145,-3.69784236362628
2.15,-3.41472144618233
2.155,-3.14598101723195
2.16,-2.89224188240601
2.165,-2.65383639448388
2.17,-2.43084904433134
2.175,-2.22315571858042
2.18,-2.03046076323101
2.185,-1.85233125882883
2.19,-1.68822811977544
2.195,-1.53753379839909
2.2,-1.39957651488644
2.205,-1.27365105182845
2.21,-1.15903624824929
2.215,-1.05500940263179
2.22,-0.960857847887461
2.225,-0.875887994563094
2.23,-0.799432153912491
2.235,-0.730853452623778
2.24,-0.669549139213291
2.245,-0.614952561654705
2.25,-0.566534069749543
2.255,-0.523801066684601
2.26,-0.486297404270933
2.265,-0.453602287104529
2.27,-0.425328823428577
2.275,-0.401122335496356
2.28,-0.380658520083808
2.285,-0.363641530581559
2.29,-0.34980203573228
2.295,-0.338895296376666
2.3,-0.330699290273084
2.305,-0.325012905870476
2.31,-0.321654218549156
2.315,-0.320458857016099
2.32,-0.321278462992634
2.325,-0.323979243831052
2.33,-0.328440615041662
2.335,-0.334553927734726
2.34,-0.342221274535252
2.345,-0.351354366501556
2.35,-0.361873472875007
2.355,-0.373706415034926
2.36,-0.386787605780473
2.365,-0.401057124969243
2.37,-0.416459822590926
2.375,-0.432944440538548
2.38,-0.450462744661895
2.385,-0.46896865917294
2.39,-0.488417396146745
2.395,-0.508764573777453
2.4,-0.529965318255756
2.405,-0.551973345705176
2.41,-0.574740022624205
2.415,-0.598213405814494
2.42,-0.622337265906664
2.425,-0.647050102410902
2.43,-0.672284162761011
2.435,-0.697964483113813
2.44,-0.724007974678361
2.445,-0.750322585957485
2.45,-0.77680657828676
2.455,-0.803347959090154
2.46,-0.829824123846824
2.465,-0.856101763202049
2.47,-0.882037095111957
2.475,-0.907476482409149
2.48,-0.93225749262498
2.485,-0.956210448260541
2.49,-0.979160501049216
2.495,-1.00093024255332
2.5,-1.02134283568032
2.505,-1.0402256181597
2.51,-1.05741409138056
2.515,-1.07275616891453
2.52,-1.08611652211978
2.525,-1.0973808296164
2.53,-1.1064597174919
2.535,-1.11329217170696
2.54,-1.11784821605508
2.545,-1.12013067913562
2.55,-1.12017592090072
2.555,-1.11805344993355
2.56,-1.11386443125899
2.565,-1.10773915446966
2.57,-1.09983359623058
2.575,-1.09032526349102
2.58,-1.07940853926624
2.585,-1.06728976915907
2.59,-1.05418232379193
2.595,-1.04030185213159
2.6,-1.02586190711036
2.605,-1.01107008271952
2.61,-0.996124755815476
2.615,-0.981212480722328
2.62,-0.966506043918598
2.625,-0.952163152096953
2.63,-0.938325700958581
2.635,-0.925119554489118
2.64,-0.912654754601781
2.645,-0.90102607783097
2.65,-0.890313857843729
2.655,-0.880584998463404
2.66,-0.871894110318763
2.665,-0.864284713972021
2.67,-0.857790462507798
2.675,-0.852436346387675
2.68,-0.848239852420729
2.685,-0.845212056691508
2.69,-0.843358638093127
2.695,-0.842680804720218
2.7,-0.843176129843836
2.705,-0.844839297627911
2.71,-0.847662761286859
2.715,-0.851637318168316
2.72,-0.856752607410783
2.725,-0.862997536500689
2.73,-0.870360643348237
2.735,-0.878830400513259
2.74,-0.88839546801971
2.745,-0.899044900865508
2.75,-0.910768316913998
2.755,-0.923556030383015
2.76,-0.937399155657471
2.765,-0.95228968566255
2.77,-0.968220548561869
2.775,-0.985185646098533
2.78,-1.00317987648266
2.785,-1.02219914435011
2.79,-1.04224035997469
2.795,-1.06330142960956
2.8,-1.08538123856162
2.805,-1.10847962836332
2.81,-1.13259736919666
2.815,-1.15773612854189
2.82,-1.18389843686595
2.825,-1.21108765103012
2.83,-1.23930791597999
2.835,-1.26856412518242
2.84,-1.29886188019001
2.845,-1.330207449643
2.85,-1.36260772795942
2.855,-1.39607019391465
2.86,-1.43060286927095
2.865,-1.46621427758338
2.87,-1.5029134032818
2.875,-1.54070965110585
2.88,-1.57961280595263
2.885,-1.61963299318285
2.89,-1.66078063942051
2.895,-1.70306643387348
2.9,-1.74650129019607
2.905,-1.79109630891157
2.91,-1.83686274040946
2.915,-1.88381194853129
2.92,-1.93195537475881
2.925,-1.98130450301818
2.93,-2.03187082511517
2.935,-2.0836658068176
2.94,-2.13670085460257
2.945,-2.19098728308804
2.95,-2.24653628316938
2.955,-2.3033588908836
2.96,-2.36146595702497
2.965,-2.42086811753659
2.97,-2.48157576470396
2.975,-2.54359901917617
2.98,-2.606947702841
2.985,-2.6716313125792
2.99,-2.73765899492311
2.995,-2.80503952164238
3,-2.87378126627883
