"Freq [GHz]","dB(St(Driver_T1,Driver_T1)) []"
1,-1.01664115976557
1.005,-0.932636990910266
1.01,-0.859753392703747
1.015,-0.797323395444743
1.02,-0.744530936178196
1.025,-0.700474872274484
1.03,-0.664225764268745
1.035,-0.634872404215191
1.04,-0.611556853239274
1.045,-0.593498176671927
1.05,-0.580006038745856
1.055,-0.570485862553477
1.06,-0.564437457657797
1.065,-0.561448970479762
1.07,-0.561187817354882
1.075,-0.563389992654519
1.08,-0.56784885707024
1.085,-0.574404236214036
1.09,-0.582932414105007
1.095,-0.593337396959332
1.1,-0.605543651243271
1.105,-0.619490384482945
1.11,-0.635127334829964
1.115,-0.652411962349965
1.12,-0.671307887755825
1.125,-0.691784399097782
1.13,-0.713816839955768
1.135,-0.737387700178393
1.14,-0.762488248530922
1.145,-0.789120572376517
1.15,-0.817299919767444
1.155,-0.8470572716508
1.16,-0.878442104494975
1.165,-0.911525335346713
1.17,-0.94640247156398
1.175,-0.983197016199422
1.18,-1.02206420763907
1.185,-1.06319519937625
1.19,-1.10682181369095
1.195,-1.15322203258012
1.2,-1.20272642154179
1.205,-1.25572571743919
1.21,-1.31267985060951
1.215,-1.37412871213369
1.22,-1.4407050154986
1.225,-1.51314962847319
1.23,-1.59232974745871
1.235,-1.67926021804912
1.24,-1.7751281080531
1.245,-1.88132019712306
1.25,-1.99945215393775
1.255,-2.13139646302306
1.26,-2.27930300317391
1.265,-2.44560048004681
1.27,-2.63295686968419
1.275,-2.84415979517725
1.28,-3.0818493347154
1.285,-3.34799194213067
1.29,-3.64292519315539
1.295,-3.96374846097518
1.3,-4.30186021313981
1.305,-4.63974701355898
1.31,-4.94806545301545
1.315,-5.18581627810989
1.32,-5.30780733653422
1.325,-5.28090495545212
1.33,-5.10153757374599
1.335,-4.80037198371058
1.34,-4.42907626473756
1.345,-4.04015563119755
1.35,-3.67332708096498
1.355,-3.35204068076782
1.36,-3.08630811645497
1.365,-2.87732697695951
1.37,-2.72148881379826
1.375,-2.61311049550019
1.38,-2.54603253135157
1.385,-2.51443289373767
1.39,-2.51316717274613
1.395,-2.53785111327879
1.4,-2.58481780390658
1.405,-2.65102375320117
1.41,-2.73394239782578
1.415,-2.83146325059436
1.42,-2.94180400112143
1.425,-3.06343740388629
1.43,-3.19503226297401
1.435,-3.33540683002458
1.44,-3.48349269071824
1.445,-3.63830731173811
1.45,-3.79893364440609
1.455,-3.96450543205099
1.46,-4.13419710129743
1.465,-4.30721731686423
1.47,-4.48280544254208
1.475,-4.66023028099155
1.48,-4.83879056710009
1.485,-5.01781676942306
1.49,-5.19667381686979
1.495,-5.37476441780713
1.5,-5.5515326799952
1.505,-5.72646777544766
1.51,-5.89910742699887
1.515,-6.06904102502689
1.52,-6.23591221476692
1.525,-6.39942082767358
1.53,-6.55932406448224
1.535,-6.71543687255603
1.54,-6.86763149492427
1.545,-7.01583620194553
1.55,-7.16003324743931
1.555,-7.30025611812297
1.56,-7.43658616714992
1.565,-7.56914873865699
1.57,-7.69810890008503
1.575,-7.82366690264138
1.58,-7.94605348804041
1.585,-8.06552515233543
1.59,-8.18235946623278
1.595,-8.29685053688737
1.6,-8.4093046799634
1.605,-8.52003635380376
1.61,-8.62936439082927
1.615,-8.73760854556185
1.62,-8.84508636449729
1.625,-8.95211037081594
1.63,-9.05898554679504
1.635,-9.1660070888143
1.64,-9.27345840393933
1.645,-9.38160931306715
1.65,-9.49071442331356
1.655,-9.6010116314869
1.66,-9.71272072091154
1.665,-9.82604201534279
1.67,-9.94115505609969
1.675,-10.0582172717289
1.68,-10.1773626134487
1.685,-10.2987001343079
1.69,-10.4223124954843
1.695,-10.5482543895468
1.7,-10.6765508779651
1.705,-10.8071956488419
1.71,-10.9401492109851
1.715,-11.0753370522056
1.72,-11.212647803316
1.725,-11.3519314647922
1.73,-11.4929977704428
1.735,-11.6356147814936
1.74,-11.7795078247779
1.745,-11.9243589094241
1.75,-12.0698067763031
1.755,-12.2154477518089
1.76,-12.3608375900076
1.765,-12.5054944919983
1.77,-12.6489034852575
1.775,-12.7905223254036
1.78,-12.9297890450297
1.785,-13.066131216613
1.79,-13.1989769180592
1.795,-13.3277672914256
1.8,-13.451970471899
1.805,-13.5710965425771
1.81,-13.6847130516388
1.815,-13.7924605252674
1.82,-13.8940673365247
1.825,-13.9893632606836
1.83,-14.078291071444
1.835,-14.1609156145258
1.84,-14.2374299327309
1.845,-14.3081581994399
1.85,-14.3735554287717
1.855,-14.4342041491689
1.86,-14.4908084308857
1.865,-14.5441858272257
1.87,-14.5952579104332
1.875,-14.6450401492453
1.88,-14.6946318874212
1.885,-14.7452071489762
1.89,-14.7980069291721
1.895,-14.8543335459052
1.9,-14.9155475397066
1.905,-14.9830675366425
1.91,-15.0583734393267
1.915,-15.1430132972481
1.92,-15.2386142373213
1.925,-15.3468979173229
1.93,-15.469701108372
1.935,-15.6090022310796
1.94,-15.7669549829139
1.945,-15.945930631062
1.95,-16.1485711498194
1.955,-16.3778562203329
1.96,-16.6371882812467
1.965,-16.930501464892
1.97,-17.2624025813617
1.975,-17.6383556067289
1.98,-18.0649257478778
1.985,-18.5501054214616
1.99,-19.1037522696718
1.995,-19.7381765665797
2,-20.468913052597
2.005,-21.3156678148262
2.01,-22.3032309416073
2.015,-23.4613919266441
2.02,-24.8201587742226
2.025,-26.386851105912
2.03,-28.0613432159743
2.035,-29.4106893622941
2.04,-29.5670085826077
2.045,-28.2270271041
2.05,-26.1800478592086
2.055,-24.0987665047318
2.06,-22.2031970274277
2.065,-20.5196992464863
2.07,-19.0244451510843
2.075,-17.6868945493885
2.08,-16.4802875959424
2.085,-15.3831495647854
2.09,-14.3786354884286
2.095,-13.4535471683381
2.1,-12.5974701151217
2.105,-11.8021011870131
2.11,-11.0607437815194
2.115,-10.3679321218146
2.12,-9.71915085193867
2.125,-9.11062416943664
2.13,-8.53915577065907
2.135,-8.00200622528098
2.14,-7.49679823547691
2.145,-7.02144293844621
2.15,-6.57408230235227
2.155,-6.1530439894393
2.16,-5.75680599005196
2.165,-5.38396898879736
2.17,-5.03323489309279
2.175,-4.70339029297742
2.18,-4.39329386958898
2.185,-4.10186695603553
2.19,-3.8280865977267
2.195,-3.57098057272843
2.2,-3.32962392514813
2.205,-3.10313664174865
2.21,-2.89068216758927
2.215,-2.69146651280948
2.22,-2.50473775105857
2.225,-2.32978575140215
2.23,-2.16594202035914
2.235,-2.01257955950641
2.24,-1.86911266728241
2.245,-1.73499663171659
2.25,-1.60972727439875
2.255,-1.49284031571334
2.26,-1.38391053792947
2.265,-1.28255072691718
2.27,-1.18841037587724
2.275,-1.10117413633434
2.28,-1.02056000357345
2.285,-0.946317226463231
2.29,-0.87822393589317
2.295,-0.816084492399574
2.3,-0.759726562323363
2.305,-0.70899794310856
2.31,-0.663763171895097
2.315,-0.623899966762818
2.32,-0.589295565885176
2.325,-0.559843045103485
2.33,-0.53543770746482
2.335,-0.515973647366331
2.34,-0.501340595512488
2.345,-0.49142114762104
2.35,-0.486088468963187
2.355,-0.485204548376555
2.36,-0.488619050169549
2.365,-0.496168781977202
2.37,-0.50767776346308
2.375,-0.522957847533546
2.38,-0.541809815296718
2.385,-0.564024840946608
2.39,-0.589386205105719
2.395,-0.61767112613847
2.4,-0.648652578880694
2.405,-0.682100978585982
2.41,-0.717785623434547
2.415,-0.755475809980893
2.42,-0.79494156053338
2.425,-0.835953927806965
2.43,-0.878284868680152
2.435,-0.921706704298833
2.44,-0.965991207319383
2.445,-1.01090837838417
2.45,-1.05622499288733
2.455,-1.10170301582338
2.46,-1.14709799713005
2.465,-1.19215757243687
2.47,-1.23662020424187
2.475,-1.28021430559959
2.48,-1.32265789133812
2.485,-1.3636588991027
2.49,-1.40291631229247
2.495,-1.44012219720204
2.5,-1.4749647355444
2.505,-1.50713228973534
2.51,-1.53631848160691
2.515,-1.56222819692605
2.52,-1.58458435147535
2.525,-1.60313517495946
2.53,-1.61766169407807
2.535,-1.62798503464043
2.54,-1.63397312384307
2.545,-1.63554636601449
2.55,-1.63268189380516
2.555,-1.62541606348933
2.56,-1.61384496430428
2.565,-1.59812283912899
2.57,-1.57845845472376
2.575,-1.55510959929347
2.58,-1.52837600830136
2.585,-1.49859111357517
2.59,-1.46611306727285
2.595,-1.43131550797029
2.6,-1.39457851300669
2.605,-1.35628012576383
2.61,-1.31678876817524
2.615,-1.27645675809081
2.62,-1.23561505836688
2.625,-1.19456929824004
2.63,-1.15359703383077
2.635,-1.11294615704666
2.64,-1.0728343218661
2.645,-1.03344923322192
2.65,-0.994949634362912
2.655,-0.957466830837412
2.66,-0.921106600040604
2.665,-0.885951351674957
2.67,-0.852062423949874
2.675,-0.819482420830981
2.68,-0.788237515629333
2.685,-0.758339664650779
2.69,-0.729788690897538
2.695,-0.702574211638913
2.7,-0.676677395008368
2.705,-0.652072539767641
2.71,-0.628728479237941
2.715,-0.606609815412753
2.72,-0.585677992739378
2.725,-0.565892223273439
2.73,-0.547210276139813
2.735,-0.529589144706063
2.74,-0.512985604790636
2.745,-0.497356676748056
2.75,-0.482660003530414
2.755,-0.468854155919335
2.76,-0.455898875133585
2.765,-0.443755262002302
2.77,-0.432385920893487
2.775,-0.421755065629646
2.78,-0.411828593726062
2.785,-0.402574134461774
2.79,-0.393961075543788
2.795,-0.385960572452759
2.8,-0.378545543959969
2.805,-0.371690656778213
2.81,-0.365372301847197
2.815,-0.359568564352286
2.82,-0.354259189227373
2.825,-0.349425543593425
2.83,-0.345050577327209
2.835,-0.341118782735613
2.84,-0.337616154124873
2.845,-0.334530147895463
2.85,-0.331849643660801
2.855,-0.329564906775138
2.86,-0.327667552562069
2.865,-0.326150512456013
2.87,-0.325008002203467
2.875,-0.32423549221587
2.88,-0.323829680119937
2.885,-0.323788465513914
2.89,-0.324110926906294
2.895,-0.324797300787181
2.9,-0.325848962760972
2.905,-0.327268410649863
2.91,-0.329059249462778
2.915,-0.33122617811059
2.92,-0.333774977736689
2.925,-0.336712501522211
2.93,-0.340046665815379
2.935,-0.343786442426281
2.94,-0.347941851920201
2.945,-0.352523957734679
2.95,-0.357544860938348
2.955,-0.363017695441524
2.96,-0.36895662346155
2.965,-0.375376831037751
2.97,-0.382294523383726
2.975,-0.389726919856561
2.98,-0.39769224831505
2.985,-0.406209738631217
2.99,-0.415299615111794
2.995,-0.424983087579009
3,-0.43528234085296
