"Freq [GHz]","dB(St(Driver_T1,Driver_T1)) []"
1,-1.07871753133183
1.005,-1.01079359295511
1.01,-0.950846356847349
1.015,-0.898254218518162
1.02,-0.852390834286172
1.025,-0.812641993719424
1.03,-0.778418974854953
1.035,-0.749168490627729
1.04,-0.724379486417481
1.045,-0.703587147221488
1.05,-0.686374527294541
1.055,-0.672372234855004
1.06,-0.661256598744184
1.065,-0.652746720387206
1.07,-0.64660077895505
1.075,-0.642611914625357
1.08,-0.640603967447072
1.085,-0.640427299913147
1.09,-0.641954881881295
1.095,-0.645078768678606
1.1,-0.64970705866409
1.105,-0.655761376621365
1.11,-0.663174895273708
1.115,-0.67189087976664
1.12,-0.681861719531106
1.125,-0.693048398462219
1.13,-0.705420347351729
1.135,-0.718955621203439
1.14,-0.733641347439028
1.145,-0.749474397986746
1.15,-0.766462247794079
1.155,-0.784623993503957
1.16,-0.80399151816381
1.165,-0.824610800409366
1.17,-0.846543379331743
1.175,-0.869867999182228
1.18,-0.894682471393598
1.185,-0.921105805494091
1.19,-0.949280675924403
1.195,-0.979376309254525
1.2,-1.01159189667215
1.205,-1.0461606607916
1.21,-1.08335473471155
1.215,-1.12349104553006
1.22,-1.16693843432604
1.225,-1.21412628873268
1.23,-1.26555500869599
1.235,-1.32180866138474
1.24,-1.38357018746781
1.245,-1.4516394580043
1.25,-1.52695427133781
1.255,-1.61061387545255
1.26,-1.70390352890981
1.265,-1.80831647000717
1.27,-1.92556554755128
1.275,-2.05756911371428
1.28,-2.20638203221642
1.285,-2.37401909694854
1.29,-2.56208082850342
1.295,-2.77104106989312
1.3,-2.99901232198425
1.305,-3.2398449446767
1.31,-3.48072962224946
1.315,-3.70034679914651
1.32,-3.87002071443562
1.325,-3.96086146683958
1.33,-3.95646045619286
1.335,-3.86347401178804
1.34,-3.71039504755444
1.345,-3.53469796539559
1.35,-3.3688357196136
1.355,-3.23344664284725
1.36,-3.13777191219902
1.365,-3.08325049830422
1.37,-3.06714946106004
1.375,-3.08507506731787
1.38,-3.13237361720829
1.385,-3.20477667346148
1.39,-3.29862054295145
1.395,-3.41085782431204
1.4,-3.53898320213651
1.405,-3.68093471906385
1.41,-3.83499794581115
1.415,-3.99972335194339
1.42,-4.17385920327629
1.425,-4.35629897798984
1.43,-4.54604117241891
1.435,-4.74215922425033
1.44,-4.94377951884328
1.445,-5.15006579066487
1.45,-5.36020857112959
1.455,-5.57341862480547
1.46,-5.78892354882603
1.465,-6.00596688926263
1.47,-6.22380926122806
1.475,-6.44173105522501
1.48,-6.6590363786164
1.485,-6.87505792497923
1.49,-7.08916249152394
1.495,-7.3007568810607
1.5,-7.50929393496746
1.505,-7.71427845158366
1.51,-7.91527275417109
1.515,-8.11190168712552
1.52,-8.30385684068055
1.525,-8.49089983407346
1.53,-8.67286452504705
1.535,-8.84965805849837
1.54,-9.0212607168979
1.545,-9.18772458686791
1.55,-9.34917110670484
1.555,-9.50578760533214
1.56,-9.65782298125808
1.565,-9.80558269838735
1.57,-9.949423292747
1.575,-10.089746590093
1.58,-10.226993829687
1.585,-10.3616398757723
1.59,-10.4941876774826
1.595,-10.6251631123932
1.6,-10.7551103210036
1.605,-10.8845876112382
1.61,-11.0141639853553
1.615,-11.144416317796
1.62,-11.2759271923949
1.625,-11.4092833914933
1.63,-11.5450750179729
1.635,-11.6838952239375
1.64,-11.8263405163817
1.645,-11.973011610298
1.65,-12.124514802822
1.655,-12.2814638477901
1.66,-12.4444823181185
1.665,-12.6142064534539
1.67,-12.7912885024493
1.675,-12.9764005827671
1.68,-13.1702390976518
1.685,-13.3735297659069
1.69,-13.5870333428306
1.695,-13.8115521337233
1.7,-14.0479374298283
1.705,-14.297098030051
1.71,-14.5600100518426
1.715,-14.837728282783
1.72,-15.1313993824396
1.725,-15.4422773139211
1.73,-15.771741467897
1.735,-16.1213180396169
1.74,-16.4927053303539
1.745,-16.8878037624705
1.75,-17.3087515052041
1.755,-17.7579666678871
1.76,-18.2381969462116
1.765,-18.7525772336888
1.77,-19.3046946813229
1.775,-19.898658277215
1.78,-20.5391647220038
1.785,-21.2315410601347
1.79,-21.9817205787262
1.795,-22.7960578588949
1.8,-23.6807817916276
1.805,-24.640660453762
1.81,-25.6759934607943
1.815,-26.7761987498378
1.82,-27.9071218859013
1.825,-28.9896740657428
1.83,-29.8774332468646
1.835,-30.371707592769
1.84,-30.3252554681506
1.845,-29.7663360954909
1.85,-28.8723545458125
1.855,-27.8335418463969
1.86,-26.775998105131
1.865,-25.7635575212533
1.87,-24.8220707394855
1.875,-23.9583025889991
1.88,-23.1704829088119
1.885,-22.4535006881974
1.89,-21.801303041239
1.895,-21.2079423550352
1.9,-20.6679914781162
1.905,-20.1766710286746
1.91,-19.7298508141672
1.915,-19.3240009703707
1.92,-18.9561275963522
1.925,-18.6237083522812
1.93,-18.324634387266
1.935,-18.0571607418744
1.94,-17.8198654894458
1.945,-17.6116171245764
1.95,-17.4315494878249
1.955,-17.2790435483803
1.96,-17.1537155159602
1.965,-17.0554109588876
1.97,-16.9842048447333
1.975,-16.9404076918954
1.98,-16.9245783375464
1.985,-16.9375442139192
1.99,-16.9804305192826
1.995,-17.0547003302649
2,-17.1622086172876
2.005,-17.3052744335755
2.01,-17.4867774729177
2.015,-17.7102880980665
2.02,-17.9802444502443
2.025,-18.3021974437222
2.03,-18.6831562868049
2.035,-19.1320873358316
2.04,-19.6606548254015
2.045,-20.2843583195131
2.05,-21.0243515613474
2.055,-21.9104986568643
2.06,-22.9868370979135
2.065,-24.322151024746
2.07,-26.0327285711624
2.075,-28.339290639227
2.08,-31.7468041367305
2.085,-37.9180025295436
2.09,-50.76242944404
2.095,-35.5405322005183
2.1,-29.7934172608538
2.105,-26.2047022092254
2.11,-23.5602556756412
2.115,-21.4491326746375
2.12,-19.6824564537964
2.125,-18.157766592212
2.13,-16.8133034582617
2.135,-15.6090134227276
2.14,-14.5174844328522
2.145,-13.519168147295
2.15,-12.5996643325837
2.155,-11.7480828777609
2.16,-10.9560069017512
2.165,-10.2168094120255
2.17,-9.52518728976531
2.175,-8.87683396205568
2.18,-8.26820350144233
2.185,-7.69633676496612
2.19,-7.15873075604023
2.195,-6.65323885234644
2.2,-6.17799360171007
2.205,-5.73134639844267
2.21,-5.31182006404512
2.215,-4.91807149502566
2.22,-4.54886230700102
2.225,-4.20303592439174
2.23,-3.8794999206675
2.235,-3.57721265960114
2.24,-3.29517346019983
2.245,-3.03241563219708
2.25,-2.78800182256707
2.255,-2.56102118819697
2.26,-2.35058797328005
2.265,-2.15584112684095
2.27,-1.97594464862416
2.275,-1.81008840142948
2.28,-1.65748917500849
2.285,-1.51739183046137
2.29,-1.38907039412223
2.295,-1.27182900563372
2.3,-1.16500265588764
2.305,-1.06795767655939
2.31,-0.980091964133694
2.315,-0.900834937851798
2.32,-0.829647243310587
2.325,-0.766020222022226
2.33,-0.709475172663972
2.335,-0.659562432586921
2.34,-0.615860308961157
2.345,-0.577973888214838
2.35,-0.545533750616643
2.355,-0.518194614324709
2.36,-0.495633930283064
2.365,-0.477550446225244
2.37,-0.463662754925217
2.375,-0.453707838849196
2.38,-0.447439620600951
2.385,-0.444627526079444
2.39,-0.445055065119579
2.395,-0.448518432587822
2.4,-0.454825131466935
2.405,-0.463792618395867
2.41,-0.47524697143766
2.415,-0.489021579537229
2.42,-0.504955853211097
2.425,-0.52289395649623
2.43,-0.542683561090199
2.435,-0.564174624958237
2.44,-0.587218199480731
2.445,-0.611665271478897
2.45,-0.637365649188801
2.455,-0.664166904437759
2.46,-0.691913386871136
2.465,-0.720445330002536
2.47,-0.749598072990795
2.475,-0.779201426198003
2.48,-0.809079212499206
2.485,-0.839049019665019
2.49,-0.868922201512652
2.495,-0.898504166434843
2.5,-0.927594990832661
2.505,-0.955990391337714
2.51,-0.983483082984053
2.515,-1.00986454024996
2.52,-1.03492716389065
2.525,-1.0584668387579
2.53,-1.0802858467565
2.535,-1.10019607557059
2.54,-1.11802243913683
2.545,-1.13360640184029
2.55,-1.14680947722097
2.555,-1.15751655595401
2.56,-1.16563890928719
2.565,-1.17111671490301
2.57,-1.17392096355171
2.575,-1.174054627055
2.58,-1.17155300056161
2.585,-1.16648317224805
2.59,-1.15894261900112
2.595,-1.14905697330225
2.6,-1.13697705060456
2.605,-1.12287526423193
2.61,-1.10694158319546
2.615,-1.08937920532346
2.62,-1.07040012296854
2.625,-1.0502207517666
2.63,-1.02905777602934
2.635,-1.0071243396956
2.64,-0.984626682119895
2.645,-0.961761286179512
2.65,-0.938712574835503
2.655,-0.915651163518051
2.66,-0.892732651058109
2.665,-0.870096912264106
2.67,-0.847867840969966
2.675,-0.826153483305303
2.68,-0.805046496547283
2.685,-0.784624868471515
2.69,-0.764952834783021
2.695,-0.746081937126168
2.7,-0.72805217055451
2.705,-0.710893176502049
2.71,-0.694625444682176
2.715,-0.679261494524086
2.72,-0.664807013441936
2.725,-0.651261935229363
2.73,-0.638621447081694
2.735,-0.626876918141649
2.74,-0.616016746061534
2.745,-0.606027120932643
2.75,-0.596892708126604
2.755,-0.588597253210247
2.76,-0.581124113224364
2.765,-0.574456719342386
2.77,-0.568578976327204
2.775,-0.563475604352486
2.78,-0.559132428710481
2.785,-0.555536622742133
2.79,-0.552676909040083
2.795,-0.550543723624905
2.8,-0.549129347406694
2.805,-0.548428008838799
2.81,-0.548435961263772
2.815,-0.549151538055179
2.82,-0.550575188280355
2.825,-0.552709495254693
2.83,-0.555559180029824
2.835,-0.559131091559331
2.84,-0.56343418501493
2.845,-0.568479489485658
2.85,-0.574280066079016
2.855,-0.58085095725712
2.86,-0.588209128080304
2.865,-0.596373399893593
2.87,-0.605364376877299
2.875,-0.615204365789368
2.88,-0.625917289152603
2.885,-0.637528592084167
2.89,-0.65006514292444
2.895,-0.663555127798749
2.9,-0.67802793923471
2.905,-0.693514058961651
2.91,-0.710044935033123
2.915,-0.727652853439646
2.92,-0.746370804414378
2.925,-0.766232343679336
2.93,-0.787271448930999
2.935,-0.809522371923077
2.94,-0.833019486567506
2.945,-0.857797133541537
2.95,-0.883889461958522
2.955,-0.911330268730025
2.96,-0.94015283631646
2.965,-0.970389769630594
2.97,-1.00207283292171
2.975,-1.03523278752523
2.98,-1.0698992314144
2.985,-1.10610044153122
2.99,-1.14386321990655
2.995,-1.18321274459965
3,-1.22417242649513
