"Freq [GHz]","dB(St(Driver_T1,Driver_T1)) []"
1,-1.04925937376027
1.005,-0.973778962297317
1.01,-0.90804585359552
1.015,-0.851321187694537
1.02,-0.802856567911042
1.025,-0.76191336534409
1.03,-0.72777764972774
1.035,-0.699771091604783
1.04,-0.677258312949979
1.045,-0.65965122719015
1.05,-0.646410921894402
1.055,-0.637047614274782
1.06,-0.631119164548492
1.065,-0.628228575456647
1.07,-0.628020844944105
1.075,-0.630179477657521
1.08,-0.634422902038046
1.085,-0.640500984657635
1.09,-0.648191782731845
1.095,-0.657298629899742
1.1,-0.667647609890308
1.105,-0.679085438176986
1.11,-0.691477743739042
1.115,-0.704707722026928
1.12,-0.718675116287701
1.125,-0.733295477255624
1.13,-0.748499650139132
1.135,-0.76423344177104
1.14,-0.780457428449598
1.145,-0.797146875044657
1.15,-0.814291747143436
1.155,-0.831896809358362
1.16,-0.849981813711917
1.165,-0.868581791867963
1.17,-0.887747473815156
1.175,-0.907545863595008
1.18,-0.928061010164892
1.185,-0.949395018980178
1.19,-0.971669357928315
1.195,-0.9950265204343
1.2,-1.01963211944825
1.205,-1.04567749911968
1.21,-1.07338296660883
1.215,-1.10300176473466
1.22,-1.13482492649286
1.225,-1.16918717329266
1.23,-1.20647403644204
1.235,-1.24713038864579
1.24,-1.291670555051
1.245,-1.34069010559865
1.25,-1.39487926448646
1.255,-1.45503752256673
1.26,-1.52208835146277
1.265,-1.59709162454106
1.27,-1.68124898247286
1.275,-1.77589315073537
1.28,-1.88244484727426
1.285,-2.00230851481523
1.29,-2.13665834635452
1.295,-2.28603759279305
1.3,-2.44966150587518
1.305,-2.62430109331187
1.31,-2.80270053520003
1.315,-2.97179069659279
1.32,-3.11167701411933
1.325,-3.1973577185641
1.33,-3.20519301618872
1.335,-3.12326060838369
1.34,-2.95948514151909
1.345,-2.74028785331126
1.35,-2.49989412043808
1.355,-2.26833194290986
1.36,-2.0651027900544
1.365,-1.89911350298493
1.37,-1.77174095336403
1.375,-1.68020598681145
1.38,-1.62003454486688
1.385,-1.58648857176023
1.39,-1.5752502341148
1.395,-1.5826666792169
1.4,-1.60577241227332
1.405,-1.64221645597493
1.41,-1.69016010386301
1.415,-1.74817557187375
1.42,-1.81515732336879
1.425,-1.89024899395974
1.43,-1.97278505312298
1.435,-2.06224501621938
1.44,-2.158217809572
1.445,-2.26037412516651
1.45,-2.36844496958079
1.455,-2.48220498041537
1.46,-2.60145940347255
1.465,-2.72603388368849
1.47,-2.85576642625477
1.475,-2.9905010404843
1.48,-3.13008269743179
1.485,-3.27435332165319
1.49,-3.4231486048167
1.495,-3.57629547968773
1.5,-3.73361013153664
1.505,-3.89489645345996
1.51,-4.0599448748498
1.515,-4.22853151006004
1.52,-4.40041758849333
1.525,-4.57534913880146
1.53,-4.75305690930655
1.535,-4.93325651454958
1.54,-5.11564880432716
1.545,-5.29992045682497
1.55,-5.48574480153122
1.555,-5.67278288047487
1.56,-5.86068475787814
1.565,-6.04909108841009
1.57,-6.2376349527341
1.575,-6.42594396582939
1.58,-6.61364265855138
1.585,-6.80035512606725
1.59,-6.9857079282486
1.595,-7.16933321703839
1.6,-7.3508720545899
1.605,-7.52997787411091
1.61,-7.70632002348777
1.615,-7.87958732068401
1.62,-8.04949154045359
1.625,-8.21577074494364
1.63,-8.37819236708351
1.635,-8.53655595592463
1.64,-8.6906954977353
1.645,-8.84048123580073
1.65,-8.98582092532658
1.655,-9.12666047703811
1.66,-9.26298396312964
1.665,-9.39481298101514
1.67,-9.52220539256386
1.675,-9.64525347783534
1.68,-9.76408156149277
1.685,-9.87884318600324
1.69,-9.98971791763391
1.695,-10.096907878668
1.7,-10.2006341020857
1.705,-10.3011328034
1.71,-10.3986516589119
1.715,-10.4934461710396
1.72,-10.5857761904243
1.725,-10.6759026520591
1.73,-10.764084569574
1.735,-10.8505763187602
1.74,-10.935625229043
1.745,-11.0194694903799
1.75,-11.1023363732601
1.755,-11.1844407513052
1.76,-11.2659839094346
1.765,-11.3471526156368
1.77,-11.4281184309356
1.775,-11.5090372299926
1.78,-11.5900489037432
1.785,-11.6712772153115
1.79,-11.7528297809883
1.795,-11.8347981490907
1.8,-11.9172579508838
1.805,-12.0002690992841
1.81,-12.0838760126507
1.815,-12.1681078425035
1.82,-12.2529786853975
1.825,-12.3384877603551
1.83,-12.424619534165
1.835,-12.5113437774276
1.84,-12.59861553444
1.845,-12.6863749897957
1.85,-12.774547213901
1.855,-12.8630417684033
1.86,-12.9517521507297
1.865,-13.0405550544572
1.87,-13.129309418971
1.875,-13.2178552376709
1.88,-13.3060120886986
1.885,-13.3935773455369
1.89,-13.4803240166123
1.895,-13.565998152842
1.9,-13.650315749452
1.905,-13.7329590527739
1.91,-13.8135721633514
1.915,-13.8917558026137
1.92,-13.9670610803794
1.925,-14.0389820629924
1.93,-14.106946894976
1.935,-14.1703071681802
1.94,-14.2283251582703
1.945,-14.2801584549589
1.95,-14.3248413945089
1.955,-14.3612625544021
1.96,-14.388137383155
1.965,-14.4039748045656
1.97,-14.4070363467082
1.975,-14.3952859958221
1.98,-14.366328566419
1.985,-14.3173339356829
1.99,-14.2449440872496
1.995,-14.1451597345514
2,-14.0132037853878
2.005,-13.9511809199519
2.01,-13.8841883656289
2.015,-13.8115543152222
2.02,-13.7325702454297
2.025,-13.6464980434512
2.03,-13.5525794785498
2.035,-13.4500481409494
2.04,-13.3381438453166
2.045,-13.2161293344663
2.05,-13.083308927556
2.055,-12.9390485492477
2.06,-12.7827963721928
2.065,-12.6141031300739
2.07,-12.4326410398773
2.075,-12.2382202352496
2.08,-12.0308016752853
2.085,-11.810505660041
2.09,-11.5776153452907
2.095,-11.3325749790685
2.1,-11.0759829441286
2.105,-10.8085800407829
2.11,-10.5312337429632
2.115,-10.2449193753267
2.12,-9.95069927340127
2.125,-9.64970100047518
2.13,-9.34309561652634
2.135,-9.03207684823873
2.14,-8.71784182202575
2.145,-8.40157382062127
2.15,-8.08442733070507
2.155,-7.76751548039424
2.16,-7.45189983056641
2.165,-7.13858238598653
2.17,-6.82849962937811
2.175,-6.52251834903733
2.18,-6.22143302186371
2.185,-5.92596452193659
2.19,-5.63675994369317
2.195,-5.35439335307467
2.2,-5.07936730566651
2.205,-4.81211499508099
2.21,-4.55300291595197
2.215,-4.30233394318641
2.22,-4.0603507424975
2.225,-3.82723943714843
2.23,-3.60313346296436
2.235,-3.38811754883471
2.24,-3.18223176392563
2.245,-2.9854755763578
2.25,-2.79781187172114
2.255,-2.61917088386996
2.26,-2.4494539951643
2.265,-2.28853736873715
2.27,-2.13627538138474
2.275,-1.99250383212603
2.28,-1.85704290812506
2.285,-1.72969989627165
2.29,-1.61027163503152
2.295,-1.49854670699684
2.3,-1.39430737772883
2.305,-1.29733129086817
2.31,-1.20739293303389
2.315,-1.12426488472036
2.32,-1.04771887525946
2.325,-0.977526660998838
2.33,-0.913460746239341
2.335,-0.855294966270818
2.34,-0.802804951152494
2.345,-0.755768487805533
2.35,-0.713965796625543
2.355,-0.677179737274004
2.36,-0.64519595665516
2.365,-0.61780299040078
2.37,-0.594792327528732
2.375,-0.575958446361334
2.38,-0.561098828321228
2.385,-0.550013954892431
2.39,-0.542507291858558
2.395,-0.538385263917424
2.4,-0.537457221923346
2.405,-0.539535404322384
2.41,-0.544434893813816
2.415,-0.551973569883627
2.42,-0.561972057600289
2.425,-0.574253672926782
2.43,-0.588644364771959
2.435,-0.604972654065872
2.44,-0.623069570284626
2.445,-0.642768586058721
2.45,-0.66390555076397
2.455,-0.686318624305055
2.46,-0.709848212650376
2.465,-0.734336907053518
2.47,-0.759629429293427
2.475,-0.785572585674455
2.48,-0.81201523293957
2.485,-0.838808259656368
2.49,-0.865804587025372
2.495,-0.892859193421119
2.5,-0.919829167294437
2.505,-0.946573793322218
2.51,-0.972954676869054
2.515,-0.998835911900857
2.52,-1.02408429743847
2.525,-1.048569607431
2.53,-1.07216491853425
2.535,-1.09474699966799
2.54,-1.11619676636642
2.545,-1.13639980180093
2.55,-1.15524694491975
2.555,-1.17263494440074
2.56,-1.18846717504726
2.565,-1.20265441088352
2.57,-1.21511564655636
2.575,-1.22577895577682
2.58,-1.23458237251423
2.585,-1.24147477759446
2.59,-1.2464167703819
2.595,-1.24938150249998
2.6,-1.25035544824434
2.605,-1.24933908465604
2.61,-1.24634745334117
2.615,-1.24141057623142
2.62,-1.23457369873121
2.625,-1.22589733620575
2.63,-1.21545710358707
2.635,-1.20334331299387
2.64,-1.18966033057985
2.645,-1.17452569115882
2.65,-1.15806897723416
2.655,-1.14043047754404
2.66,-1.12175964872179
2.665,-1.10221341173177
2.67,-1.08195432194345
2.675,-1.06114865764523
2.68,-1.03996447613644
2.685,-1.01856968902029
2.69,-0.997130208816042
2.695,-0.975808217505749
2.7,-0.95476060424538
2.705,-0.934137614442129
2.71,-0.914081746067231
2.715,-0.894726921853962
2.72,-0.876197958383487
2.725,-0.858610345460084
2.73,-0.842070342073721
2.735,-0.826675389047479
2.74,-0.812514833504716
2.745,-0.799670956818793
2.75,-0.788220295887922
2.755,-0.778235247480234
2.76,-0.769785947001151
2.765,-0.762942416246067
2.77,-0.757776979329501
2.775,-0.754366951752596
2.78,-0.75279761409141
2.785,-0.753165488507024
2.79,-0.755581942394973
2.795,-0.760177147820569
2.8,-0.767104426139653
2.805,-0.776545001650595
2.81,-0.788713172092752
2.815,-0.803861870945762
2.82,-0.822288537205366
2.825,-0.844341108317735
2.83,-0.870423790301027
2.835,-0.901002005810624
2.84,-0.936605534610059
2.845,-0.97782828731362
2.85,-1.02532232727284
2.855,-1.07978261198052
2.86,-1.14191742874764
2.865,-1.21239770879775
2.87,-1.29177659912924
2.875,-1.38036956617682
2.88,-1.47808634846923
2.885,-1.58421174588513
2.89,-1.69714599684817
2.895,-1.81414069631526
2.9,-1.9311028196927
2.905,-2.04257815459462
2.91,-2.14204183784285
2.915,-2.22258088659751
2.92,-2.27792588782709
2.925,-2.30360395627471
2.93,-2.29784534027049
2.935,-2.26190479826265
2.94,-2.19968231244034
2.945,-2.11681838086997
2.95,-2.01961386846936
2.955,-1.9141025737505
2.96,-1.8054520285318
2.965,-1.69770535429886
2.97,-1.59377977448725
2.975,-1.49561276907769
2.98,-1.40436598913873
2.985,-1.32062967992024
2.99,-1.24459908023626
2.995,-1.17621349883524
3,-1.11525926871934
