"Freq [GHz]","dB(St(Driver_T1,Driver_T1)) []"
1,-1.75451438597167
1.005,-1.59482783065769
1.01,-1.45541654417063
1.015,-1.33332804696186
1.02,-1.22610731691521
1.025,-1.13171790807334
1.03,-1.04847263172398
1.035,-0.974973828290231
1.04,-0.910062548936711
1.045,-0.852775667004456
1.05,-0.802309872499051
1.055,-0.757991557809007
1.06,-0.719251713573391
1.065,-0.685605081762857
1.07,-0.656632937303593
1.075,-0.63196897912052
1.08,-0.611287901803004
1.085,-0.594296289523508
1.09,-0.580725525989257
1.095,-0.570326451024424
1.1,-0.562865519475487
1.105,-0.55812223529189
1.11,-0.555887646426639
1.115,-0.555963697680914
1.12,-0.558163251106108
1.125,-0.562310598562747
1.13,-0.568242309163546
1.135,-0.575808275497255
1.14,-0.5848728460616
1.145,-0.595315956182512
1.15,-0.607034194666462
1.155,-0.619941767372117
1.16,-0.63397134083809
1.165,-0.649074768394303
1.17,-0.665223717467972
1.175,-0.682410230040019
1.18,-0.700647258655301
1.185,-0.719969228490414
1.19,-0.740432682329274
1.195,-0.762117070554719
1.2,-0.785125753117031
1.205,-0.809587285533816
1.21,-0.83565706687228
1.215,-0.863519434786542
1.22,-0.893390301226938
1.225,-0.925520432243389
1.23,-0.960199485606426
1.235,-0.997760928984592
1.24,-1.03858796560999
1.245,-1.08312058719197
1.25,-1.13186384360423
1.255,-1.18539734506109
1.26,-1.24438585963192
1.265,-1.30959057624981
1.27,-1.38188006780518
1.275,-1.46223903779172
1.28,-1.55177128271312
1.285,-1.65169049426972
1.29,-1.76328785892941
1.295,-1.88785789657013
1.3,-2.02655244651426
1.305,-2.18011645111035
1.31,-2.34843998693285
1.315,-2.52984825359571
1.32,-2.72007241383149
1.325,-2.91095933756603
1.33,-3.08927938743187
1.335,-3.23652125852866
1.34,-3.33105971992034
1.345,-3.35368588158358
1.35,-3.29525974834798
1.355,-3.16220285577063
1.36,-2.9754566277979
1.365,-2.76312242079859
1.37,-2.55167760630887
1.375,-2.36044215798503
1.38,-2.20037613474795
1.385,-2.07563106631379
1.39,-1.98592799686987
1.395,-1.92863170469436
1.4,-1.90017170408428
1.405,-1.89686820694162
1.41,-1.91534128208371
1.415,-1.95266872880199
1.42,-2.0064092587344
1.425,-2.07456229077079
1.43,-2.15550390566435
1.435,-2.24791901478128
1.44,-2.35073881232469
1.445,-2.46308680632358
1.45,-2.58423390855193
1.455,-2.71356183506007
1.46,-2.85053364586715
1.465,-2.99467021082039
1.47,-3.14553150845313
1.475,-3.30270183675387
1.48,-3.46577818858457
1.485,-3.63436119937524
1.49,-3.80804820449944
1.495,-3.98642804878603
1.5,-4.16907737388691
1.505,-4.35555817428764
1.51,-4.54541646296561
1.515,-4.73818192588486
1.52,-4.93336847284986
1.525,-5.13047561234184
1.53,-5.32899059098732
1.535,-5.52839124507526
1.54,-5.72814951264898
1.545,-5.9277355506856
1.55,-6.12662239329936
1.555,-6.32429107447736
1.56,-6.52023612351358
1.565,-6.71397132425207
1.57,-6.90503561196628
1.575,-7.09299896588655
1.58,-7.27746814287934
1.585,-7.4580920903641
1.59,-7.63456687582616
1.595,-7.80663997739754
1.6,-7.97411379552175
1.605,-8.13684826952084
1.61,-8.29476251402108
1.615,-8.44783542696479
1.62,-8.59610526107442
1.625,-8.73966819145927
1.63,-8.87867595080999
1.635,-9.01333263773649
1.64,-9.14389083116732
1.645,-9.2706471628803
1.65,-9.39393751050414
1.655,-9.5141319747902
1.66,-9.63162979839274
1.665,-9.74685437011401
1.67,-9.86024844022919
1.675,-9.97226965089629
1.68,-10.0833864625377
1.685,-10.194074534012
1.69,-10.3048135926786
1.695,-10.4160848110304
1.7,-10.5283686900673
1.705,-10.6421434362975
1.71,-10.7578838092444
1.715,-10.8760604094431
1.72,-10.9971393728527
1.725,-11.1215824359968
1.73,-11.2498473366005
1.735,-11.3823885165872
1.74,-11.5196580976916
1.745,-11.662107104308
1.75,-11.8101869132723
1.755,-11.9643509158914
1.76,-12.1250563835387
1.765,-12.2927665344966
1.77,-12.4679528064138
1.775,-12.6510973458398
1.78,-12.8426957338925
1.785,-13.0432599754078
1.79,-13.2533217881247
1.795,-13.4734362389223
1.8,-13.7041857862334
1.805,-13.9461848020514
1.81,-14.2000846640995
1.815,-14.4665795296052
1.82,-14.74641292787
1.825,-15.0403853409061
1.83,-15.3493629818091
1.835,-15.6742880318402
1.84,-16.0161906628855
1.845,-16.3762032567758
1.85,-16.7555773432593
1.855,-17.1557039229756
1.86,-17.5781380325947
1.865,-18.0246286628947
1.87,-18.4971554798023
1.875,-18.9979742547073
1.88,-19.5296735264259
1.885,-20.0952458498604
1.89,-20.6981781074415
1.895,-21.3425668491356
1.9,-22.033266545372
1.905,-22.7760809339493
1.91,-23.5780098933361
1.915,-24.4475649537165
1.92,-25.3951609925354
1.925,-26.4335662455552
1.93,-27.578308072786
1.935,-28.8476721216761
1.94,-30.2611513400895
1.945,-31.8328679396913
1.95,-33.549826977643
1.955,-35.3098053199502
1.96,-36.7932792494467
1.965,-37.429225672529
1.97,-36.9116435326692
1.975,-35.6451367669154
1.98,-34.1749267432837
1.985,-32.7729570998143
1.99,-31.5181000895629
1.995,-30.4146879990241
2,-29.4452618791288
2.005,-28.5884962389943
2.01,-27.824459827678
2.015,-27.1357373711049
2.02,-26.5073079137417
2.025,-25.9261325087169
2.03,-25.380754889017
2.035,-24.8610022695095
2.04,-24.3578010661182
2.045,-23.8630971490119
2.05,-23.3698594668805
2.055,-22.8721391258138
2.06,-22.3651513523982
2.065,-21.8453464589212
2.07,-21.3104397199591
2.075,-20.7593795143066
2.08,-20.1922466597608
2.085,-19.6100922630209
2.09,-19.014732844927
2.095,-18.4085273268032
2.1,-17.7941601051885
2.105,-17.1744492962019
2.11,-16.5521917272387
2.115,-15.9300487559931
2.12,-15.3104710813366
2.125,-14.6956569914478
2.13,-14.08753684049
2.135,-13.4877764344851
2.14,-12.8977928321655
2.145,-12.3187773141855
2.15,-11.7517215904337
2.155,-11.1974444993271
2.16,-10.6566174187405
2.165,-10.1297873418006
2.17,-9.61739709657049
2.175,-9.11980254601173
2.18,-8.63728683455412
2.185,-8.17007188617099
2.19,-7.71832743484327
2.195,-7.28217790321939
2.2,-6.86170745435572
2.205,-6.45696353490008
2.21,-6.06795921246702
2.215,-5.69467458917665
2.22,-5.33705754950944
2.225,-4.9950240748618
2.23,-4.66845832992385
2.235,-4.3572126974876
2.24,-4.06110790874171
2.245,-3.77993338586432
2.25,-3.51344788332121
2.255,-3.26138048441136
2.26,-3.02343198111593
2.265,-2.79927663908556
2.27,-2.58856432648076
2.275,-2.39092296607557
2.28,-2.20596125504532
2.285,-2.0332715864437
2.29,-1.87243310050766
2.295,-1.72301479234697
2.3,-1.58457860478556
2.305,-1.45668244047286
2.31,-1.33888303513169
2.315,-1.23073864317886
2.32,-1.13181149719593
2.325,-1.04167001317527
2.33,-0.959890723554399
2.335,-0.886059929345465
2.34,-0.819775070864575
2.345,-0.760645823477919
2.35,-0.70829493034302
2.355,-0.662358788340578
2.36,-0.622487806352954
2.365,-0.588346556875259
2.37,-0.559613742802217
2.375,-0.535982001287108
2.38,-0.517157565987853
2.385,-0.502859807959197
2.39,-0.492820674064924
2.395,-0.486784040197136
2.4,-0.484504994909118
2.405,-0.485749067383228
2.41,-0.490291412037244
2.415,-0.497915960577906
2.42,-0.508414550981107
2.425,-0.521586041747488
2.43,-0.537235418871153
2.435,-0.555172902285972
2.44,-0.575213058128122
2.445,-0.597173922982047
2.45,-0.620876146362385
2.455,-0.64614215802841
2.46,-0.672795367321176
2.465,-0.700659402553983
2.47,-0.729557399553344
2.475,-0.759311349721054
2.48,-0.789741519431743
2.485,-0.820665954151313
2.49,-0.851900082292593
2.495,-0.883256435436018
2.5,-0.914544503032192
2.505,-0.945570740935434
2.51,-0.976138753948062
2.515,-1.00604967279821
2.52,-1.0351027454388
2.525,-1.06309616102752
2.53,-1.08982812221538
2.535,-1.11509817724043
2.54,-1.13870881762615
2.545,-1.16046733992489
2.55,-1.18018796090841
2.555,-1.19769416500213
2.56,-1.21282125083071
2.565,-1.22541903091787
2.57,-1.23535462544001
2.575,-1.24251527823986
2.58,-1.24681111194508
2.585,-1.24817772999083
2.59,-1.24657856759352
2.595,-1.24200689217636
2.6,-1.23448735711666
2.605,-1.22407702140395
2.61,-1.2108657619277
2.615,-1.19497602428657
2.62,-1.17656188141804
2.625,-1.15580739578602
2.63,-1.13292430879322
2.635,-1.10814910879319
2.64,-1.08173955478429
2.645,-1.05397075495166
2.65,-1.0251309162924
2.655,-0.995516892658256
2.66,-0.96542966314931
2.665,-0.935169870894428
2.67,-0.905033544287739
2.675,-0.875308109572694
2.68,-0.846268786395271
2.685,-0.818175437897489
2.69,-0.79126992544508
2.695,-0.765773996470898
2.7,-0.741887713325291
2.705,-0.719788412383862
2.71,-0.699630166668803
2.715,-0.681543712320497
2.72,-0.665636789602795
2.725,-0.651994842706897
2.73,-0.640682019237925
2.735,-0.631742409582689
2.74,-0.625201467957155
2.745,-0.621067560348619
2.75,-0.619333589335478
2.755,-0.619978651441641
2.76,-0.622969688860279
2.765,-0.628263103716342
2.77,-0.635806309252738
2.775,-0.645539198199929
2.78,-0.657395513973527
2.785,-0.671304115137341
2.79,-0.687190127721871
2.795,-0.704975983486812
2.8,-0.724582345079331
2.805,-0.745928921307565
2.81,-0.768935177475348
2.815,-0.793520946972113
2.82,-0.819606951147374
2.825,-0.847115234989058
2.83,-0.875969526329713
2.835,-0.906095526284474
2.84,-0.937421138429025
2.845,-0.96987664390118
2.85,-1.0033948291934
2.855,-1.03791107292774
2.86,-1.0733633973961
2.865,-1.10969249012584
2.87,-1.14684170021291
2.875,-1.18475701365985
2.88,-1.2233870114765
2.885,-1.26268281384946
2.89,-1.30259801326964
2.895,-1.34308859912265
2.9,-1.38411287590022
2.905,-1.42563137687664
2.91,-1.46760677481427
2.915,-1.51000379101533
2.92,-1.55278910381572
2.925,-1.59593125742793
2.93,-1.63940057187025
2.935,-1.68316905457738
2.94,-1.7272103141615
2.945,-1.77149947668731
2.95,-1.81601310473327
2.955,-1.8607291194355
2.96,-1.90562672564577
2.965,-1.95068634028167
2.97,-1.99588952390292
2.975,-2.04121891551109
2.98,-2.08665817054083
2.985,-2.13219190198698
2.99,-2.17780562459404
2.995,-2.22348570201892
3,-2.26921929686891
