"Freq [GHz]","dB(St(Driver_T1,Driver_T1)) []"
1,-1.08018965605147
1.005,-1.01947662836683
1.01,-0.962174363586691
1.015,-0.908582663886083
1.02,-0.85898404989478
1.025,-0.813635232150273
1.03,-0.77275827309895
1.035,-0.73653186152438
1.04,-0.705083193977331
1.045,-0.678480998487815
1.05,-0.656730232816022
1.055,-0.639768934865785
1.06,-0.627467594912482
1.065,-0.619631263842735
1.07,-0.616004422312195
1.075,-0.616278432536505
1.08,-0.620101200697083
1.085,-0.627088516594114
1.09,-0.63683642682045
1.095,-0.648933949577701
1.1,-0.662975455566417
1.105,-0.678572113677836
1.11,-0.695361919101243
1.115,-0.713017967466869
1.12,-0.731254793399992
1.125,-0.749832738880639
1.13,-0.768560443456116
1.135,-0.787295646800543
1.14,-0.805944561298811
1.145,-0.824460109249343
1.15,-0.842839329864153
1.155,-0.861120251142105
1.16,-0.879378497163731
1.165,-0.897723868432122
1.17,-0.916297096813111
1.175,-0.935266941608038
1.18,-0.954827762424703
1.185,-0.975197679912291
1.19,-0.996617418411735
1.195,-1.01934991590553
1.2,-1.04368078674918
1.205,-1.06991973179417
1.21,-1.09840300890789
1.215,-1.12949710478677
1.22,-1.16360378644353
1.225,-1.20116675738163
1.23,-1.24268019738582
1.235,-1.28869952093137
1.24,-1.33985473552836
1.245,-1.39686679227216
1.25,-1.46056724413988
1.255,-1.53192125935787
1.26,-1.61205337596186
1.265,-1.7022739451388
1.27,-1.8041012756047
1.275,-1.91926874635992
1.28,-2.04969530328253
1.285,-2.19737807611734
1.29,-2.36413226978894
1.295,-2.55105215584867
1.3,-2.75750621460542
1.305,-2.97946139691718
1.31,-3.20711698955024
1.315,-3.42253816480182
1.32,-3.59944433844599
1.325,-3.7085787741358
1.33,-3.72989130702213
1.335,-3.66515801187802
1.34,-3.53964957534303
1.345,-3.3900712410576
1.35,-3.24925209223634
1.355,-3.1380794030507
1.36,-3.06563381818831
1.365,-3.03304076374834
1.37,-3.03735546437697
1.375,-3.07416827712306
1.38,-3.13898800704656
1.385,-3.22783072738764
1.39,-3.33738457633892
1.395,-3.46498146073936
1.4,-3.60849782123785
1.405,-3.76624168623762
1.41,-3.93684936447713
1.415,-4.11919906267964
1.42,-4.31234181642622
1.425,-4.51544759343724
1.43,-4.72776383298916
1.435,-4.94858385956247
1.44,-5.17722302842427
1.445,-5.41300090679434
1.45,-5.65522818732734
1.455,-5.90319735183702
1.46,-6.15617635685317
1.465,-6.41340481014212
1.47,-6.67409226040122
1.475,-6.9374183404157
1.48,-7.20253459372233
1.485,-7.46856788036713
1.49,-7.73462530075363
1.495,-7.99980059852467
1.5,-8.26318200388602
1.505,-8.52386145777388
1.51,-8.78094511555059
1.515,-9.03356496868051
1.52,-9.28089134825492
1.525,-9.52214599173012
1.53,-9.75661527243534
1.535,-9.9836631205386
1.54,-10.2027431150981
1.545,-10.4134092095433
1.55,-10.6153245748973
1.555,-10.8082681096292
1.56,-10.9921382703732
1.565,-11.1669540165787
1.57,-11.3328528223166
1.575,-11.4900858746244
1.58,-11.6390107336176
1.585,-11.7800818602809
1.59,-11.9138395121403
1.595,-12.0408975586866
1.6,-12.1619307766781
1.605,-12.2776621545043
1.61,-12.3888506725065
1.615,-12.4962799425912
1.62,-12.6007479960771
1.625,-12.703058413102
1.63,-12.8040128977736
1.635,-12.9044053260281
1.64,-13.0050172309313
1.645,-13.1066146439354
1.65,-13.2099461798458
1.655,-13.3157422362723
1.66,-13.4247151728947
1.665,-13.5375603395094
1.67,-13.6549578321711
1.675,-13.7775748717087
1.68,-13.9060687167825
1.685,-14.0410900431579
1.69,-14.1832867410895
1.695,-14.333308103122
1.7,-14.4918093949729
1.705,-14.6594568225134
1.71,-14.8369329284694
1.715,-15.0249424737579
1.72,-15.224218880994
1.725,-15.4355313424199
1.73,-15.6596927222942
1.735,-15.8975684157461
1.74,-16.1500863636124
1.745,-16.4182484673393
1.75,-16.7031437013352
1.755,-17.0059632839851
1.76,-17.3280183443656
1.765,-17.6707606102976
1.77,-18.0358067433531
1.775,-18.4249670518902
1.78,-18.8402794086447
1.785,-19.2840492498303
1.79,-19.7588964639227
1.795,-20.2678096373017
1.8,-20.8142071988501
1.805,-21.4020028611825
1.81,-22.0356680915245
1.815,-22.7202744721368
1.82,-23.461478117249
1.825,-24.2653649996682
1.83,-25.1379853186885
1.835,-26.084216048604
1.84,-27.1052071689389
1.845,-28.1929491453128
1.85,-29.3194638509572
1.855,-30.4180477496314
1.86,-31.360804362334
1.865,-31.9615650422502
1.87,-32.0559646116407
1.875,-31.6287159863159
1.88,-30.827845217575
1.885,-29.8443226604832
1.89,-28.8176591283781
1.895,-27.8235917214161
1.9,-26.89534236573
1.905,-26.0436697006249
1.91,-25.2688601731189
1.915,-24.5668511178992
1.92,-23.9321374960136
1.925,-23.3590818111236
1.93,-22.8424634621739
1.935,-22.3776749798305
1.94,-21.9607596452803
1.945,-21.5883825504966
1.95,-21.2577782634375
1.955,-20.9666949348555
1.96,-20.7133435847394
1.965,-20.4963560993563
1.97,-20.3147531275286
1.975,-20.167922130549
1.98,-20.0556056117594
1.985,-19.9778996962755
1.99,-19.9352636019991
1.995,-19.9285410934426
2,-19.9589957553561
2.005,-20.0283629283292
2.01,-20.1389225313239
2.015,-20.2935989459769
2.02,-20.4960969507847
2.025,-20.7510868307339
2.03,-21.0644579617249
2.035,-21.443669454921
2.04,-21.8982403595453
2.045,-22.440442165843
2.05,-23.0862830246464
2.055,-23.8568966260718
2.06,-24.7804161922043
2.065,-25.8940888176776
2.07,-27.2447341297328
2.075,-28.8780746086294
2.08,-30.7742593763216
2.085,-32.5794568297181
2.09,-33.1362259950871
2.095,-31.6344887604174
2.1,-29.1813456021899
2.105,-26.7639933858573
2.11,-24.6266432744756
2.115,-22.763751417061
2.12,-21.1269306696563
2.125,-19.6709790573072
2.13,-18.3605496442809
2.135,-17.1689884302972
2.14,-16.076203630208
2.145,-15.0668878248746
2.15,-14.1292181715847
2.155,-13.2539363177264
2.16,-12.4336981843559
2.165,-11.66260993285
2.17,-10.9358920014197
2.175,-10.2496319051016
2.18,-9.6005992901886
2.185,-8.98610524709262
2.19,-8.40389353860469
2.195,-7.8520551820388
2.2,-7.32896038256403
2.205,-6.83320356909905
2.21,-6.36355850205554
2.215,-5.91894127736149
2.22,-5.49837965653175
2.225,-5.10098758255161
2.23,-4.72594404588301
2.235,-4.37247567818066
2.24,-4.03984259740788
2.245,-3.72732712461014
2.25,-3.43422505306689
2.255,-3.15983918550269
2.26,-2.90347487305499
2.265,-2.66443729770994
2.27,-2.44203024343659
2.275,-2.23555610444217
2.28,-2.04431688473592
2.285,-1.86761595323397
2.29,-1.70476033363062
2.295,-1.55506332801027
2.3,-1.41784729685336
2.305,-1.29244644447642
2.31,-1.17820948663951
2.315,-1.07450210467248
2.32,-0.980709116781648
2.325,-0.89623632122834
2.33,-0.82051198712979
2.335,-0.752987986334665
2.34,-0.693140574044083
2.345,-0.640470836682166
2.35,-0.594504833227964
2.355,-0.55479346117244
2.36,-0.520912080887426
2.365,-0.492459932931521
2.37,-0.469059382099912
2.375,-0.450355020243201
2.38,-0.436012657378268
2.385,-0.425718227679759
2.39,-0.419176633808362
2.395,-0.416110549883254
2.4,-0.416259200377623
2.405,-0.419377129405425
2.41,-0.425232972340373
2.415,-0.433608239505083
2.42,-0.444296119811096
2.425,-0.457100310726945
2.43,-0.471833879799642
2.435,-0.488318162146974
2.44,-0.506381697860822
2.445,-0.525859213100992
2.45,-0.546590648796497
2.455,-0.568420241288133
2.46,-0.591195659918727
2.465,-0.614767207478964
2.47,-0.638987090512406
2.475,-0.663708767730503
2.48,-0.688786386131641
2.485,-0.714074315787456
2.49,-0.739426795568304
2.495,-0.76469770321903
2.5,-0.789740464039873
2.505,-0.814408112824604
2.51,-0.838553523494009
2.515,-0.862029819857946
2.52,-0.884690978962735
2.525,-0.906392635363034
2.53,-0.926993090259361
2.535,-0.946354523676217
2.54,-0.964344400712868
2.545,-0.980837054473754
2.55,-0.995715418802794
2.555,-1.00887287377417
2.56,-1.02021515655615
2.565,-1.02966228042963
2.57,-1.03715039619226
2.575,-1.04263352375686
2.58,-1.04608507829919
2.585,-1.04749911556222
2.59,-1.04689122543418
2.595,-1.04429901194391
2.6,-1.03978211126412
2.605,-1.03342171668409
2.61,-1.02531959991231
2.615,-1.0155966402616
2.62,-1.00439089576869
2.625,-0.991855271529121
2.63,-0.97815485895159
2.635,-0.963464033942694
2.64,-0.947963411258743
2.645,-0.93183675588294
2.65,-0.915267950266136
2.655,-0.898438109031193
2.66,-0.881522921102935
2.665,-0.864690284288544
2.67,-0.848098280354663
2.675,-0.831893520905608
2.68,-0.816209877043753
2.685,-0.801167589886053
2.69,-0.786872745268542
2.695,-0.773417084877972
2.7,-0.760878117822888
2.705,-0.749319491286303
2.71,-0.738791576186611
2.715,-0.7293322233829
2.72,-0.720967647480922
2.725,-0.713713398283281
2.73,-0.707575383942489
2.735,-0.70255091451715
2.74,-0.698629739550925
2.745,-0.69579505820825
2.75,-0.694024485193005
2.755,-0.693290959993005
2.76,-0.693563590836973
2.765,-0.694808428072352
2.77,-0.696989164459146
2.775,-0.700067762144187
2.78,-0.704005007866796
2.785,-0.708760999300115
2.79,-0.714295566406258
2.795,-0.720568632335741
2.8,-0.72754051878674
2.805,-0.735172200909526
2.81,-0.743425516843065
2.815,-0.752263336843916
2.82,-0.761649696747832
2.825,-0.771549900220901
2.83,-0.781930593932925
2.835,-0.792759819439828
2.84,-0.804007045209789
2.845,-0.815643181879137
2.85,-0.827640583487892
2.855,-0.839973037126288
2.86,-0.852615743126796
2.865,-0.865545287661822
2.87,-0.878739609358111
2.875,-0.892177961313451
2.88,-0.905840869698992
2.885,-0.919710089951425
2.89,-0.933768561400399
2.895,-0.948000361037304
2.9,-0.962390657010204
2.905,-0.976925662323879
2.91,-0.991592589133396
2.915,-1.00637960394041
2.92,-1.02127578393583
2.925,-1.03627107467419
2.93,-1.05135624921823
2.935,-1.06652286885085
2.94,-1.08176324541858
2.945,-1.09707040534234
2.95,-1.11243805530798
2.955,-1.12786054963103
2.96,-1.14333285927412
2.965,-1.15885054248419
2.97,-1.17440971700614
2.975,-1.19000703382365
2.98,-1.20563965237101
2.985,-1.22130521715682
2.99,-1.23700183573767
2.995,-1.25272805797788
3,-1.26848285653085
