"Freq [GHz]","dB(St(Driver_T1,Driver_T1)) []"
1,-1.21772552017553
1.005,-1.16184204179082
1.01,-1.10745876563175
1.015,-1.05483210592773
1.02,-1.00423546432043
1.025,-0.955955972383402
1.03,-0.910289993531122
1.035,-0.867537304761298
1.04,-0.827993954540952
1.045,-0.791943894714108
1.05,-0.759649607963157
1.055,-0.731342089546336
1.06,-0.707210678841266
1.065,-0.687393354089729
1.07,-0.67196818151727
1.075,-0.660946627440907
1.08,-0.654269384118575
1.085,-0.651805221636106
1.09,-0.653353166563662
1.095,-0.658648044396243
1.1,-0.667369138897231
1.105,-0.679151455038545
1.11,-0.693598859482113
1.115,-0.710298241186106
1.12,-0.728833798784512
1.125,-0.74880061930015
1.13,-0.769816848845555
1.135,-0.791533944835902
1.14,-0.813644711477914
1.145,-0.835889028095973
1.15,-0.858057361216097
1.155,-0.879992292312193
1.16,-0.901588388106427
1.165,-0.922790790770718
1.17,-0.943592917762772
1.175,-0.964033644559742
1.18,-0.984194308185804
1.185,-1.00419582442884
1.19,-1.02419616472321
1.195,-1.04438839563297
1.2,-1.06499944866218
1.205,-1.0862897630682
1.21,-1.1085539305199
1.215,-1.13212246791864
1.22,-1.15736485275021
1.225,-1.18469397239283
1.23,-1.21457216197863
1.235,-1.24751902954593
1.24,-1.2841212828649
1.245,-1.32504476207622
1.25,-1.37104881416399
1.255,-1.42300296086758
1.26,-1.48190540521971
1.265,-1.54890210401005
1.27,-1.62530356876509
1.275,-1.71259366289661
1.28,-1.81241945005176
1.285,-1.92654202464864
1.29,-2.0567128715425
1.295,-2.20441585747457
1.3,-2.37038016161989
1.305,-2.55373118290006
1.31,-2.75063705746485
1.315,-2.95241923168818
1.32,-3.14350791207398
1.325,-3.30052005862414
1.33,-3.39482450310476
1.335,-3.40064215340764
1.34,-3.30680071240295
1.345,-3.1245201374256
1.35,-2.88402930935733
1.355,-2.62210474072362
1.36,-2.36983563277065
1.365,-2.1469850967786
1.37,-1.96252968183708
1.375,-1.81794467757669
1.38,-1.71057181409653
1.385,-1.63602719283569
1.39,-1.58960359462394
1.395,-1.5669548012789
1.4,-1.56435504936463
1.405,-1.57873911835879
1.41,-1.6076445892461
1.415,-1.64912051416043
1.42,-1.70163312842042
1.425,-1.76398130167134
1.43,-1.83522557892405
1.435,-1.91463067924426
1.44,-2.00161978057642
1.445,-2.09573853044493
1.45,-2.19662682712889
1.455,-2.30399669669559
1.46,-2.41761490373846
1.465,-2.53728921886039
1.47,-2.66285750501544
1.475,-2.79417897655903
1.48,-2.93112713483398
1.485,-3.07358399977203
1.49,-3.22143534548119
1.495,-3.37456671527789
1.5,-3.5328600431014
1.505,-3.69619074764729
1.51,-3.86442519591425
1.515,-4.03741845650686
1.52,-4.21501228176024
1.525,-4.39703327290912
1.53,-4.58329119516734
1.535,-4.77357742050786
1.54,-4.96766348576165
1.545,-5.16529976284507
1.55,-5.36621424682785
1.555,-5.57011147638911
1.56,-5.77667161011065
1.565,-5.98554969102906
1.57,-6.19637514081687
1.575,-6.40875153364894
1.58,-6.62225670786597
1.585,-6.83644328044357
1.59,-7.05083963434042
1.595,-7.26495145120933
1.6,-7.47826386078525
1.605,-7.69024427252094
1.61,-7.90034594377156
1.615,-8.10801232121975
1.62,-8.31268216777147
1.625,-8.51379545578927
1.63,-8.71079996984917
1.635,-8.90315851957274
1.64,-9.09035661771854
1.645,-9.27191043368152
1.65,-9.44737479160008
1.655,-9.61635094956753
1.66,-9.77849387610627
1.665,-9.93351873564026
1.67,-10.0812063086204
1.675,-10.2214071050263
1.68,-10.3540439810684
1.685,-10.4791131349289
1.69,-10.5966834334597
1.695,-10.7068941017972
1.7,-10.8099508852922
1.705,-10.9061208617145
1.71,-10.9957261362079
1.715,-11.0791366884232
1.72,-11.1567626590912
1.725,-11.2290463624291
1.73,-11.2964542933175
1.735,-11.3594693674944
1.74,-11.418583593133
1.745,-11.4742913272884
1.75,-11.5270832246849
1.755,-11.5774409424016
1.76,-11.6258326246003
1.765,-11.6727091580703
1.77,-11.7185011627853
1.775,-11.7636166619336
1.78,-11.8084393625836
1.785,-11.8533274705043
1.79,-11.8986129597401
1.795,-11.944601218343
1.8,-11.9915709952421
1.805,-12.0397745787003
1.81,-12.0894381434723
1.815,-12.1407622110121
1.82,-12.1939221744668
1.825,-12.2490688473899
1.83,-12.3063290019155
1.835,-12.3658058684167
1.84,-12.4275795743856
1.845,-12.4917075054072
1.85,-12.5582245756997
1.855,-12.6271433998154
1.86,-12.6984543608177
1.865,-12.7721255736601
1.87,-12.8481027456657
1.875,-12.9263089390399
1.88,-13.0066442432956
1.885,-13.0889853684052
1.89,-13.1731851724602
1.895,-13.259072140624
1.9,-13.3464498352329
1.905,-13.4350963399818
1.91,-13.5247637241778
1.915,-13.6151775559599
1.92,-13.7060364960257
1.925,-13.7970120056162
1.93,-13.8877482040693
1.935,-13.9778619119382
1.94,-14.0669429152217
1.945,-14.1545544844313
1.95,-14.2402341787972
1.955,-14.3234949607394
1.96,-14.4038266387419
1.965,-14.4806976480449
1.97,-14.5535571683707
1.975,-14.6218375666998
1.98,-14.6849571415879
1.985,-14.7423231345793
1.99,-14.7933349649821
1.995,-14.8373876377847
2,-14.8738752719252
2.005,-14.9021946984029
2.01,-14.9217490854015
2.015,-14.9319515607057
2.02,-14.9322288195657
2.025,-14.9220247273732
2.03,-14.9008039488417
2.035,-14.8680556559915
2.04,-14.8232973828171
2.045,-14.7660791017487
2.05,-14.6959875929092
2.055,-14.6126511596543
2.06,-14.5157447122155
2.065,-14.4049951964563
2.07,-14.2801872897635
2.075,-14.1411692257873
2.08,-13.987858550545
2.085,-13.820247561637
2.09,-13.6384081473129
2.095,-13.4424957290922
2.1,-13.2327520246995
2.105,-13.0095063883527
2.11,-12.7731755507184
2.115,-12.5242616655819
2.12,-12.2633486663382
2.125,-11.9910970331188
2.13,-11.708237160928
2.135,-11.4155615919754
2.14,-11.1139164252228
2.145,-10.8041922397613
2.15,-10.4873148659142
2.155,-10.1642363116386
2.16,-9.83592610667617
2.165,-9.50336326899688
2.17,-9.16752903369808
2.175,-8.8294004195341
2.18,-8.48994464754847
2.185,-8.150114373515
2.19,-7.81084365341211
2.195,-7.47304453013864
2.2,-7.13760411034939
2.205,-6.80538199215753
2.21,-6.47720790656254
2.215,-6.15387944658094
2.22,-5.83615977678354
2.225,-5.52477524079704
2.23,-5.22041281375277
2.235,-4.92371737902648
2.24,-4.63528884217426
2.245,-4.35567912789042
2.25,-4.0853891361836
2.255,-3.82486575986209
2.26,-3.57449908502567
2.265,-3.33461990802613
2.27,-3.1054977051473
2.275,-2.88733918452204
2.28,-2.68028753371348
2.285,-2.48442245184437
2.29,-2.29976102383134
2.295,-2.12625945840233
2.3,-1.96381567381418
2.305,-1.8122726783252
2.31,-1.67142265915973
2.315,-1.54101166616739
2.32,-1.4207447562461
2.325,-1.31029145275684
2.33,-1.20929137074048
2.335,-1.11735986318501
2.34,-1.03409355476695
2.345,-0.959075645898651
2.35,-0.891880889870916
2.355,-0.832080167697081
2.36,-0.779244607399158
2.365,-0.732949215634325
2.37,-0.692776008758028
2.375,-0.658316646996957
2.38,-0.629174589005482
2.385,-0.604966794609535
2.39,-0.585325011116839
2.395,-0.569896683454822
2.4,-0.558345530943315
2.405,-0.550351834119448
2.41,-0.545612474114478
2.415,-0.543840765023725
2.42,-0.544766116858449
2.425,-0.548133563320369
2.43,-0.553703185041635
2.435,-0.561249455277566
2.44,-0.570560531472957
2.445,-0.58143751274822
2.45,-0.593693680238299
2.455,-0.607153734404482
2.46,-0.621653040944295
2.465,-0.637036894750411
2.47,-0.653159809501428
2.475,-0.669884838889603
2.48,-0.687082934175723
2.485,-0.704632341683294
2.49,-0.722418042974184
2.495,-0.740331239755801
2.5,-0.758268885030458
2.505,-0.776133261579967
2.51,-0.793831608562882
2.515,-0.811275796757283
2.52,-0.828382052794062
2.525,-0.845070732566161
2.53,-0.861266143853279
2.535,-0.876896418049155
2.54,-0.89189343070041
2.545,-0.906192770350357
2.55,-0.919733754908352
2.555,-0.932459494426185
2.56,-0.944316998743658
2.565,-0.955257327960938
2.57,-0.9652357830935
2.575,-0.974212133574019
2.58,-0.982150877479824
2.585,-0.989021529495435
2.59,-0.994798930685263
2.595,-0.999463573167716
2.6,-1.00300193178297
2.605,-1.00540679386552
2.61,-1.00667757731534
2.615,-1.0068206263569
2.62,-1.00584947373865
2.625,-1.00378505771575
2.63,-1.0006558820328
2.635,-0.996498107336715
2.64,-0.991355563048453
2.645,-0.98527966974601
2.65,-0.978329263573914
2.655,-0.970570316103604
2.66,-0.962075545395836
2.665,-0.95292391671826
2.67,-0.943200034370356
2.675,-0.932993429269141
2.68,-0.922397750231798
2.685,-0.911509870119812
2.69,-0.900428921038002
2.695,-0.889255275467039
2.7,-0.878089492410169
2.705,-0.86703124923585
2.71,-0.856178280805409
2.715,-0.845625347628423
2.72,-0.835463254168932
2.725,-0.825777937053711
2.73,-0.816649640869134
2.735,-0.808152196575141
2.74,-0.800352414437371
2.745,-0.79330959993424
2.75,-0.787075197489747
2.755,-0.781692563279979
2.76,-0.777196864911194
2.765,-0.773615102604224
2.77,-0.770966243756245
2.775,-0.769261460463926
2.78,-0.768504457835653
2.785,-0.768691879710824
2.79,-0.769813777735158
2.795,-0.771854129576283
2.8,-0.774791392352957
2.805,-0.778599078025047
2.81,-0.783246338477062
2.815,-0.788698549244771
2.82,-0.794917882208418
2.825,-0.801863859033711
2.83,-0.809493878621501
2.835,-0.817763713274099
2.84,-0.826627969658555
2.845,-0.836040511911431
2.85,-0.845954845364609
2.855,-0.856324460363197
2.86,-0.867103136490243
2.865,-0.878245208209331
2.87,-0.88970579349196
2.875,-0.90144098742137
2.88,-0.913408023071506
2.885,-0.925565402162021
2.89,-0.937872998102878
2.895,-0.950292134079586
2.9,-0.962785638805417
2.905,-0.975317882493912
2.91,-0.987854795494062
2.915,-1.00036387189267
2.92,-1.01281416023169
2.925,-1.02517624332052
2.93,-1.03742220895045
2.935,-1.04952561314488
2.94,-1.06146143740946
2.945,-1.07320604128307
2.95,-1.08473711133544
2.955,-1.09603360761273
2.96,-1.10707570839808
2.965,-1.11784475403135
2.97,-1.12832319042074
2.975,-1.13849451277829
2.98,-1.14834321002176
2.985,-1.15785471020507
2.99,-1.16701532726996
2.995,-1.17581220934933
3,-1.18423328879979
