"Freq [GHz]","dB(St(Driver_T1,Driver_T1)) []"
1,-3.2088279363824
1.005,-2.84545653009924
1.01,-2.53615837983771
1.015,-2.27168483355107
1.02,-2.04451122869182
1.025,-1.84851336661558
1.03,-1.67870209083308
1.035,-1.53100696308488
1.04,-1.40210080765083
1.045,-1.28925786583726
1.05,-1.19023932646614
1.055,-1.10320099009375
1.06,-1.02661873393769
1.065,-0.959228245400326
1.07,-0.899976176988145
1.075,-0.847980448279789
1.08,-0.80249789168457
1.085,-0.762897820982372
1.09,-0.72864040826999
1.095,-0.699258998224221
1.1,-0.674345679304204
1.105,-0.653539578860718
1.11,-0.636517460897566
1.115,-0.622986288092556
1.12,-0.612677469409044
1.125,-0.60534255632793
1.13,-0.600750178996208
1.135,-0.598684032539359
1.14,-0.598941737045515
1.145,-0.601334405358953
1.15,-0.605686763233044
1.155,-0.611837678291502
1.16,-0.619640968608757
1.165,-0.628966378838409
1.17,-0.639700631407684
1.175,-0.65174848164376
1.18,-0.665033727845851
1.185,-0.679500149239163
1.19,-0.695112365506894
1.195,-0.711856630465693
1.2,-0.729741588975991
1.205,-0.748799040206602
1.21,-0.769084762024452
1.215,-0.790679460900498
1.22,-0.813689919806715
1.225,-0.838250423682017
1.23,-0.864524548682102
1.235,-0.892707407953375
1.24,-0.923028453118074
1.245,-0.955754936509649
1.25,-0.991196143025595
1.255,-1.02970849933811
1.26,-1.07170165671405
1.265,-1.11764561234009
1.27,-1.16807886655155
1.275,-1.22361748227392
1.28,-1.28496467252462
1.285,-1.35292011640153
1.29,-1.42838747028858
1.295,-1.51237730113283
1.3,-1.60600061295479
1.305,-1.71044480166618
1.31,-1.82691861047339
1.315,-1.95654470168897
1.32,-2.10016726129479
1.325,-2.25802833089242
1.33,-2.42925493527915
1.335,-2.61110349852167
1.34,-2.79796034200805
1.345,-2.9802523180896
1.35,-3.1437346829391
1.355,-3.27004260471065
1.36,-3.33955659494524
1.365,-3.33683255943573
1.37,-3.25679310491834
1.375,-3.10804964834643
1.38,-2.91072951240479
1.385,-2.68996748754133
1.39,-2.46899338498708
1.395,-2.26496136133963
1.4,-2.08805148057067
1.405,-1.94264528030077
1.41,-1.82918191771003
1.415,-1.74584645981497
1.42,-1.6897896379227
1.425,-1.65788644147143
1.43,-1.64714955260094
1.435,-1.65491980023797
1.44,-1.67892704555778
1.445,-1.71728298831181
1.45,-1.76844269058781
1.455,-1.83115520980087
1.46,-1.90441376544105
1.465,-1.98741018808261
1.47,-2.07949535074028
1.475,-2.1801457534404
1.48,-2.28893574091858
1.485,-2.40551458360556
1.49,-2.52958762094532
1.495,-2.66090073324437
1.5,-2.79922751116841
1.505,-2.94435859998368
1.51,-3.09609279498787
1.515,-3.25422955035777
1.52,-3.41856263522075
1.525,-3.58887472943041
1.53,-3.76493279929141
1.535,-3.9464841324518
1.54,-4.13325294331297
1.545,-4.32493748727534
1.55,-4.52120764531399
1.555,-4.72170296082124
1.56,-4.92603112911918
1.565,-5.13376695699051
1.57,-5.34445182515793
1.575,-5.55759370071533
1.58,-5.77266775863071
1.585,-5.98911768085465
1.59,-6.20635770726174
1.595,-6.42377551338513
1.6,-6.64073598430552
1.605,-6.85658594075817
1.61,-7.07065985135793
1.615,-7.28228653306873
1.62,-7.49079680062475
1.625,-7.69553197547158
1.63,-7.89585310804664
1.635,-8.09115070727258
1.64,-8.28085471264351
1.645,-8.46444439285709
1.65,-8.64145781664967
1.655,-8.81150052211195
1.66,-8.9742530149471
1.665,-9.12947675655073
1.67,-9.27701835945116
1.675,-9.41681178757461
1.68,-9.5488784561515
1.685,-9.67332523275591
1.69,-9.79034044761702
1.695,-9.90018811859473
1.7,-10.0032006759389
1.705,-10.0997705282641
1.71,-10.1903408410421
1.715,-10.2753959023013
1.72,-10.3554514297536
1.725,-10.4310451338676
1.73,-10.5027277982511
1.735,-10.571055078164
1.74,-10.6365801556996
1.745,-10.69984733082
1.75,-10.7613865744674
1.755,-10.8217090255354
1.76,-10.8813033785389
1.765,-10.9406330833474
1.77,-11.0001342616095
1.775,-11.0602142353183
1.78,-11.1212505599466
1.785,-11.1835904562698
1.79,-11.2475505400545
1.795,-11.3134167560338
1.8,-11.3814444310631
1.805,-11.4518583702932
1.81,-11.5248529290949
1.815,-11.6005920019662
1.82,-11.6792088775829
1.825,-11.7608059164783
1.83,-11.8454540146411
1.835,-11.9331918227827
1.84,-12.024024697427
1.845,-12.1179233666523
1.85,-12.2148223007004
1.855,-12.3146177862499
1.86,-12.4171657134791
1.865,-12.522279097726
1.87,-12.6297253732202
1.875,-12.7392235156393
1.88,-12.8504410736799
1.885,-12.9629912178257
1.89,-13.0764299471497
1.895,-13.1902536319261
1.9,-13.3038971100269
1.905,-13.416732596546
1.91,-13.5280697056806
1.915,-13.6371569170324
1.92,-13.7431848390861
1.925,-13.8452916231996
1.93,-13.9425708535726
1.935,-14.0340821738543
1.94,-14.1188648022311
1.945,-14.1959539302056
1.95,-14.2643997976219
1.955,-14.3232889971975
1.96,-14.3717673043114
1.965,-14.4090630793274
1.97,-14.4345100841941
1.975,-14.4475684283245
1.98,-14.4478423421382
1.985,-14.435093589635
1.99,-14.4092495754679
1.995,-14.370405557735
2,-14.3188208060865
2.005,-14.2333106525799
2.01,-14.137318877426
2.015,-14.0309677922881
2.02,-13.9145012761095
2.025,-13.788267606079
2.03,-13.6527002594263
2.035,-13.5082979557348
2.04,-13.3556050682336
2.045,-13.1951933182485
2.05,-13.0276454171931
2.055,-12.8535410687331
2.06,-12.6734455156672
2.065,-12.4879006277146
2.07,-12.2974183848403
2.075,-12.1024765158292
2.08,-11.9035159984645
2.085,-11.7009401081259
2.09,-11.4951147073225
2.095,-11.2863694914497
2.1,-11.0749999389375
2.105,-10.8612697514408
2.11,-10.6454136078128
2.115,-10.4276400916352
2.12,-10.2081346844714
2.125,-9.98706274500293
2.13,-9.76457241759779
2.135,-9.54079743285672
2.14,-9.31585977765729
2.145,-9.0898722236976
2.15,-8.86294071204375
2.155,-8.63516659722365
2.16,-8.40664875843672
2.165,-8.17748558785789
2.17,-7.94777686713004
2.175,-7.71762554322167
2.18,-7.48713941407854
2.185,-7.25643273307006
2.19,-7.02562773923435
2.195,-6.79485611783304
2.2,-6.56426039279225
2.205,-6.33399524926232
2.21,-6.10422878080204
2.215,-5.87514365161207
2.22,-5.64693815984127
2.225,-5.41982718332553
2.23,-5.19404298427531
2.235,-4.96983584452925
2.24,-4.74747449820666
2.245,-4.52724632415404
2.25,-4.3094572567806
2.255,-4.09443137107484
2.26,-3.88251009621194
2.265,-3.67405101267002
2.27,-3.469426190674
2.275,-3.26902003356933
2.28,-3.07322659883123
2.285,-2.8824463821509
2.29,-2.69708256653654
2.295,-2.51753675847731
2.3,-2.3442042564638
2.305,-2.17746892266614
2.31,-2.01769775505891
2.315,-1.86523528308441
2.32,-1.72039793309437
2.325,-1.58346852818513
2.33,-1.45469109856385
2.335,-1.3342661814638
2.34,-1.22234678260585
2.345,-1.11903515377335
2.35,-1.02438051362478
2.355,-0.938377802757063
2.36,-0.860967521472843
2.365,-0.79203665259709
2.37,-0.731420625310804
2.375,-0.67890623263277
2.38,-0.634235377860798
2.385,-0.597109496322782
2.39,-0.567194479675018
2.395,-0.544125921268544
2.4,-0.527514502422996
2.405,-0.516951349672876
2.41,-0.512013210502567
2.415,-0.512267317785647
2.42,-0.517275839065969
2.425,-0.526599834112339
2.43,-0.539802671339596
2.435,-0.556452879666855
2.44,-0.576126436640906
2.445,-0.598408516168301
2.45,-0.622894740431691
2.455,-0.649192001371077
2.46,-0.676918938611927
2.465,-0.705706184096551
2.47,-0.735196509820243
2.475,-0.765045044084983
2.48,-0.79491975208589
2.485,-0.824502404345638
2.49,-0.853490273561445
2.495,-0.88159879391939
2.5,-0.908565368738905
2.505,-0.934154400922555
2.51,-0.958163426692556
2.515,-0.980429949663714
2.52,-1.0008382201346
2.525,-1.01932484684106
2.53,-1.03588187650298
2.535,-1.05055597193973
2.54,-1.06344268534931
2.545,-1.07467559156638
2.55,-1.08441109543447
2.555,-1.09281077939852
2.56,-1.1000238616972
2.565,-1.10617242082949
2.57,-1.11134145300831
2.575,-1.11557476277432
2.58,-1.11887649914704
2.585,-1.1212171928514
2.59,-1.12254263432087
2.595,-1.12278387926058
2.6,-1.12186695761609
2.605,-1.11972131631111
2.61,-1.11628649012377
2.615,-1.11151687140798
2.62,-1.10538470184281
2.625,-1.09788154494003
2.63,-1.08901854481634
2.635,-1.07882576727244
2.64,-1.06735088105191
2.645,-1.05465738954654
2.65,-1.04082257753367
2.655,-1.02593529910112
2.66,-1.0100937031511
2.665,-0.993402971010659
2.67,-0.975973125007082
2.675,-0.957916955492506
2.68,-0.939348105042735
2.685,-0.920379341127284
2.69,-0.901121041601186
2.695,-0.881679910446887
2.7,-0.862157934160641
2.705,-0.842651582120507
2.71,-0.823251247420342
2.715,-0.80404091829608
2.72,-0.7850980646905
2.725,-0.766493719939319
2.73,-0.748292734173563
2.735,-0.730554173894143
2.74,-0.713331841268215
2.745,-0.696674886934818
2.75,-0.680628491342407
2.755,-0.665234591689717
2.76,-0.650532634206529
2.765,-0.636560334594021
2.77,-0.623354432768759
2.775,-0.610951431466157
2.78,-0.599388311642461
2.785,-0.588703220888745
2.79,-0.578936134191995
2.795,-0.57012948934154
2.8,-0.562328802109554
2.805,-0.555583269090616
2.81,-0.549946368855416
2.815,-0.54547647497654
2.82,-0.542237497671146
2.825,-0.540299574467875
2.83,-0.539739834682675
2.835,-0.540643267884846
2.84,-0.543103733342505
2.845,-0.547225156167187
2.85,-0.55312296720941
2.855,-0.560925858603823
2.86,-0.570777946466309
2.865,-0.582841458315424
2.87,-0.597300097702108
2.875,-0.614363285614023
2.88,-0.634271542182355
2.885,-0.657303359770142
2.89,-0.683784039302664
2.895,-0.714097129659474
2.9,-0.748699345394611
2.905,-0.788140170717901
2.91,-0.833087831225094
2.915,-0.884363993467273
2.92,-0.942990529908098
2.925,-1.01025309839428
2.93,-1.08778832008133
2.935,-1.1777042450334
2.94,-1.28274784391829
2.945,-1.40653860804025
2.95,-1.55389351514387
2.955,-1.73127310369551
2.96,-1.94737258567789
2.965,-2.21384024521688
2.97,-2.54595693082586
2.975,-2.96266987634602
2.98,-3.484199552349
2.985,-4.12270246191305
2.99,-4.85691012277944
2.995,-5.58290914197537
3,-6.07593982693085
