"Freq [GHz]","dB(St(Driver_T1,Driver_T1)) []"
1,-2.06441977608165
1.005,-1.85424319157096
1.01,-1.67787417647401
1.015,-1.53012745307155
1.02,-1.4062122183762
1.025,-1.30189214856067
1.03,-1.21353810418169
1.035,-1.13811443138592
1.04,-1.0731290312883
1.045,-1.01656742317634
1.05,-0.96682321469686
1.055,-0.922631872767855
1.06,-0.883011094220398
1.065,-0.847208901844106
1.07,-0.814659383154153
1.075,-0.784945394685932
1.08,-0.7577673281366
1.085,-0.7329170147458
1.09,-0.710255929865676
1.095,-0.689696989922799
1.1,-0.671189373711236
1.105,-0.65470592965457
1.11,-0.640232840257046
1.115,-0.627761300064029
1.12,-0.617281023289125
1.125,-0.60877543345782
1.13,-0.602218403278436
1.135,-0.597572412974632
1.14,-0.594787984692399
1.145,-0.593804234709198
1.15,-0.594550369069175
1.155,-0.59694793617786
1.16,-0.600913644865795
1.165,-0.606362560153498
1.17,-0.613211501727131
1.175,-0.621382491079632
1.18,-0.630806120620772
1.185,-0.641424749552269
1.19,-0.653195464569113
1.195,-0.66609277633255
1.2,-0.680111053463886
1.205,-0.695266723417049
1.21,-0.711600293508138
1.215,-0.72917826569392
1.22,-0.74809503596378
1.225,-0.768474884368194
1.23,-0.79047417591109
1.235,-0.814283907042925
1.24,-0.840132748520603
1.245,-0.868290753931344
1.25,-0.899073924668769
1.255,-0.932849846029232
1.26,-0.970044632848264
1.265,-1.01115144058193
1.27,-1.05674079615945
1.275,-1.10747295736928
1.28,-1.16411237322917
1.285,-1.22754400509896
1.29,-1.29879062546892
1.295,-1.37902896792198
1.3,-1.46960029426103
1.305,-1.5720068099435
1.31,-1.68787822196171
1.315,-1.81888101215855
1.32,-1.96652520834271
1.325,-2.13180018171231
1.33,-2.31455054197552
1.335,-2.51251346603758
1.34,-2.7200447302661
1.345,-2.92686387343354
1.35,-3.11769227191585
1.355,-3.27413874653215
1.36,-3.37969021392498
1.365,-3.42638512280277
1.37,-3.41909989644045
1.375,-3.37399538213824
1.38,-3.31215116425197
1.385,-3.25284374545466
1.39,-3.20983968203577
1.395,-3.19094749893706
1.4,-3.19934415965417
1.405,-3.23527490929319
1.41,-3.29743348210139
1.415,-3.38386891208216
1.42,-3.49250061576297
1.425,-3.62137241186903
1.43,-3.7687533650528
1.435,-3.93315731165805
1.44,-4.11332368908787
1.445,-4.30818296532708
1.45,-4.51681846376954
1.455,-4.73842998352803
1.46,-4.97230125128925
1.465,-5.21777157300659
1.47,-5.47421129501053
1.475,-5.74100039397052
1.48,-6.01750945683222
1.485,-6.30308236326048
1.49,-6.59702008486438
1.495,-6.89856514194449
1.5,-7.20688640201078
1.505,-7.52106406657918
1.51,-7.84007488001615
1.515,-8.16277781410003
1.52,-8.48790074075112
1.525,-8.81402890473822
1.53,-9.1395963411398
1.535,-9.46288172826972
1.54,-9.78201048578843
1.545,-10.0949651561309
1.55,-10.3996061567706
1.555,-10.6937047545149
1.56,-10.9749894841033
1.565,-11.2412061370316
1.57,-11.4901898840116
1.575,-11.719946188445
1.58,-11.9287351893682
1.585,-12.1151525823975
1.59,-12.2781991621755
1.595,-12.4173314875775
1.6,-12.532487743472
1.605,-12.6240856255422
1.61,-12.6929924716063
1.615,-12.7404712144401
1.62,-12.76810836156
1.625,-12.7777316564625
1.63,-12.7713252121028
1.635,-12.7509489183537
1.64,-12.7186672067539
1.645,-12.6764902633698
1.65,-12.6263289022192
1.655,-12.5699627990853
1.66,-12.5090207437594
1.665,-12.4449709866043
1.67,-12.3791195513766
1.675,-12.3126144517456
1.68,-12.2464539782625
1.685,-12.1814975295736
1.69,-12.1184777851252
1.695,-12.0580133183566
1.7,-12.0006210096551
1.705,-11.9467278302107
1.71,-11.8966817324081
1.715,-11.8507615048321
1.72,-11.8091855373807
1.725,-11.7721195016335
1.73,-11.7396829901044
1.735,-11.7119551809233
1.74,-11.6889796063551
1.745,-11.6707681078941
1.75,-11.6573040601166
1.755,-11.6485449419756
1.76,-11.6444243291988
1.765,-11.6448533758729
1.77,-11.649721847871
1.775,-11.6588987659454
1.78,-11.6722327124028
1.785,-11.6895518524733
1.79,-11.7106637199251
1.795,-11.7353548162048
1.8,-11.7633900734257
1.805,-11.7945122338331
1.81,-11.8284412018623
1.815,-11.8648734294084
1.82,-11.9034814001995
1.825,-11.9439132848725
1.83,-11.9857928440086
1.835,-12.0287196614098
1.84,-12.072269793517
1.845,-12.1159969222088
1.85,-12.159434096255
1.855,-12.2020961403628
1.86,-12.2434827989794
1.865,-12.2830826638774
1.87,-12.3203779094188
1.875,-12.3548498270744
1.88,-12.3859851117642
1.885,-12.4132828081312
1.89,-12.4362617771717
1.895,-12.4544684958008
1.9,-12.4674849578043
1.905,-12.4749364085744
1.91,-12.4764986224303
1.915,-12.4719044240676
1.92,-12.4609491675018
1.925,-12.443494917878
1.93,-12.419473132765
1.935,-12.3888857069874
1.94,-12.3518043237029
1.945,-12.3083681379633
1.95,-12.2587799004476
1.955,-12.2033007017298
1.96,-12.1422435757363
1.965,-12.075966241068
1.97,-12.0048632788152
1.975,-11.9293580456671
1.98,-11.8498946036584
1.985,-11.7669299162919
1.99,-11.6809265192873
1.995,-11.5923458272819
2,-11.501642189558
2.005,-11.3688913861662
2.01,-11.2405235102194
2.015,-11.116747963052
2.02,-10.9976953673024
2.025,-10.8834173238563
2.03,-10.7738878448128
2.035,-10.6690063033293
2.04,-10.5686016894632
2.045,-10.4724379252138
2.05,-10.3802199731614
2.055,-10.2916004710951
2.06,-10.2061866381194
2.065,-10.123547223184
2.07,-10.0432193014077
2.075,-9.96471476338722
2.08,-9.88752638449762
2.085,-9.81113340205327
2.09,-9.73500656580191
2.095,-9.6586126599446
2.1,-9.58141852176549
2.105,-9.50289460264778
2.11,-9.42251813184165
2.115,-9.33977595226353
2.12,-9.2541671014835
2.125,-9.16520521064366
2.13,-9.07242079012787
2.135,-8.97536346412823
2.14,-8.87360420754031
2.145,-8.76673762851277
2.15,-8.65438432906568
2.155,-8.53619336500002
2.16,-8.41184481532777
2.165,-8.28105246107745
2.17,-8.14356656395146
2.175,-7.99917672723684
2.18,-7.84771481483478
2.185,-7.68905789940914
2.19,-7.52313120747202
2.195,-7.34991102759194
2.2,-7.16942754752832
2.205,-6.98176758649878
2.21,-6.78707718933699
2.215,-6.58556404921631
2.22,-6.37749972401129
2.225,-6.16322160730808
2.23,-5.9431346076545
2.235,-5.71771247809602
2.24,-5.48749872187238
2.245,-5.25310697925678
2.25,-5.0152207753819
2.255,-4.77459248074028
2.26,-4.53204130700278
2.265,-4.28845013405373
2.27,-4.04476094398507
2.275,-3.80196862955239
2.28,-3.56111295436953
2.285,-3.32326847622638
2.29,-3.08953230903894
2.295,-2.86100969694352
2.3,-2.63879750655013
2.305,-2.42396590630508
2.31,-2.21753868539667
2.315,-2.02047285256458
2.32,-1.83363832600019
2.325,-1.65779865449608
2.33,-1.49359377281107
2.335,-1.34152577158602
2.34,-1.20194854445454
2.345,-1.07506196568674
2.35,-0.96091096842603
2.355,-0.859389566310329
2.36,-0.77024952767581
2.365,-0.693113110449792
2.37,-0.627489030446833
2.375,-0.57279068822149
2.38,-0.528355628127378
2.385,-0.493465242262419
2.39,-0.467363845034438
2.395,-0.449276408007722
2.4,-0.438424434406774
2.405,-0.434039645179062
2.41,-0.435375325697834
2.415,-0.441715331921842
2.42,-0.452380871029028
2.425,-0.466735253181332
2.43,-0.484186860820307
2.435,-0.504190604644485
2.44,-0.52624813706759
2.445,-0.549907080423898
2.45,-0.57475950380816
2.455,-0.600439853637411
2.46,-0.626622512211715
2.465,-0.653019128173658
2.47,-0.679375834428501
2.475,-0.705470443721034
2.48,-0.731109690098722
2.485,-0.756126565992359
2.49,-0.780377789452357
2.495,-0.803741423889922
2.5,-0.826114663117233
2.505,-0.847411787174893
2.51,-0.867562288999579
2.515,-0.886509168077592
2.52,-0.904207384543558
2.525,-0.92062246545583
2.53,-0.935729253988859
2.535,-0.949510791843439
2.54,-0.961957325138482
2.545,-0.973065424289831
2.55,-0.982837208804815
2.555,-0.991279668447879
2.56,-0.998404072799334
2.565,-1.00422546178945
2.57,-1.00876221030529
2.575,-1.01203566041236
2.58,-1.01406981508872
2.585,-1.01489108762918
2.59,-1.01452810103901
2.595,-1.01301153181265
2.6,-1.01037399249715
2.605,-1.00664994739929
2.61,-1.00187565573913
2.615,-0.996089136515685
2.62,-0.989330149369033
2.625,-0.981640185830214
2.63,-0.973062465574976
2.635,-0.963641932658062
2.64,-0.953425247209825
2.645,-0.942460768719455
2.65,-0.930798527790295
2.655,-0.918490184099322
2.66,-0.905588969183102
2.665,-0.892149613557596
2.67,-0.878228258510669
2.675,-0.863882353636741
2.68,-0.849170541777229
2.685,-0.834152533460591
2.69,-0.818888973190673
2.695,-0.803441300012351
2.7,-0.787871604703732
2.705,-0.77224248572956
2.71,-0.756616905770633
2.715,-0.741058050257662
2.72,-0.725629188916849
2.725,-0.710393540915796
2.73,-0.695414143806711
2.735,-0.680753726124871
2.74,-0.666474583227449
2.745,-0.652638455762706
2.75,-0.639306410044139
2.755,-0.6265387195701
2.76,-0.614394746971473
2.765,-0.602932825783338
2.77,-0.59221014161523
2.775,-0.582282612532146
2.78,-0.573204768751822
2.785,-0.565029632109954
2.79,-0.55780859614674
2.795,-0.551591308130005
2.8,-0.546425554863476
2.805,-0.54235715475053
2.81,-0.539429859319017
2.815,-0.537685268297267
2.82,-0.537162763413735
2.825,-0.537899467439862
2.83,-0.539930236698475
2.835,-0.543287697440873
2.84,-0.548002339322849
2.845,-0.554102682911008
2.85,-0.561615543040058
2.855,-0.570566416350995
2.86,-0.580980030068906
2.865,-0.592881100863813
2.87,-0.606295368652996
2.875,-0.621250992108365
2.88,-0.637780422789947
2.885,-0.655922916619896
2.89,-0.675727899721154
2.895,-0.697259487555204
2.9,-0.72060257215396
2.905,-0.745871057253985
2.91,-0.773219057743778
2.915,-0.802856221243032
2.92,-0.835068825054924
2.925,-0.870249023845224
2.93,-0.908935678544344
2.935,-0.951871737650225
2.94,-1.00008537848885
2.945,-1.05500531457543
2.95,-1.11862511109436
2.955,-1.19373712459895
2.96,-1.28426318629023
2.965,-1.39571366598396
2.97,-1.53580092421134
2.975,-1.71519647891477
2.98,-1.94830606668906
2.985,-2.25365059140314
2.99,-2.65284717720541
2.995,-3.1662214986209
3,-3.80223118636114
